t [s],Red [bit],IR [bit]
0,50757,55256
0.008,50756,55254
0.016,50755,55252
0.024,50754,55251
0.032,50753,55251
0.04,50755,55253
0.048,50757,55256
0.056,50761,55262
0.064,50763,55268
0.072,50764,55277
0.08,50763,55287
0.088,50760,55298
0.096,50758,55310
0.104,50760,55323
0.112,50766,55337
0.12,50777,55352
0.128,50790,55367
0.136,50804,55382
0.144,50815,55398
0.152,50823,55413
0.16,50829,55429
0.168,50834,55445
0.176,50840,55460
0.184,50847,55475
0.192,50855,55489
0.2,50864,55503
0.208,50870,55517
0.216,50874,55532
0.224,50874,55547
0.232,50871,55562
0.24,50869,55578
0.248,50870,55592
0.256,50876,55605
0.264,50886,55617
0.272,50898,55627
0.28,50911,55638
0.288,50921,55649
0.296,50928,55661
0.304,50933,55673
0.312,50937,55686
0.32,50942,55699
0.328,50947,55712
0.336,50952,55723
0.344,50958,55733
0.352,50964,55743
0.36,50970,55755
0.368,50973,55769
0.376,50976,55787
0.384,50977,55806
0.392,50979,55826
0.4,50982,55842
0.408,50987,55854
0.416,50995,55862
0.424,51003,55869
0.432,51011,55875
0.44,51018,55883
0.448,51024,55894
0.456,51029,55907
0.464,51034,55922
0.472,51039,55936
0.48,51045,55949
0.488,51050,55961
0.496,51056,55972
0.504,51061,55982
0.512,51066,55994
0.52,51071,56008
0.528,51076,56025
0.536,51082,56044
0.544,51087,56062
0.552,51091,56075
0.56,51094,56077
0.568,51092,56065
0.576,51085,56036
0.584,51070,55991
0.592,51049,55930
0.6,51021,55856
0.608,50988,55772
0.616,50951,55684
0.624,50913,55596
0.632,50877,55512
0.64,50843,55436
0.648,50813,55372
0.656,50789,55318
0.664,50769,55275
0.672,50754,55241
0.68,50744,55214
0.688,50736,55194
0.696,50731,55180
0.704,50727,55172
0.712,50724,55168
0.72,50723,55167
0.728,50721,55166
0.736,50720,55164
0.744,50718,55161
0.752,50716,55156
0.76,50714,55150
0.768,50713,55146
0.776,50712,55144
0.784,50712,55146
0.792,50713,55151
0.8,50715,55159
0.808,50719,55169
0.816,50724,55179
0.824,50729,55187
0.832,50736,55195
0.84,50742,55202
0.848,50748,55211
0.856,50753,55220
0.864,50756,55231
0.872,50758,55241
0.88,50759,55249
0.888,50759,55253
0.896,50758,55254
0.904,50757,55252
0.912,50757,55249
0.92,50757,55246
0.928,50757,55246
0.936,50757,55247
0.944,50757,55251
0.952,50757,55257
0.96,50758,55263
0.968,50761,55268
0.976,50766,55272
0.984,50774,55276
0.992,50784,55281
1,50794,55290
1.008,50802,55303
1.016,50808,55320
1.024,50811,55340
1.032,50812,55359
1.04,50814,55377
1.048,50817,55393
1.056,50822,55408
1.064,50829,55421
1.072,50836,55434
1.08,50842,55448
1.088,50848,55462
1.096,50853,55476
1.104,50857,55489
1.112,50862,55503
1.12,50869,55515
1.128,50876,55527
1.136,50884,55538
1.144,50893,55549
1.152,50900,55560
1.16,50905,55572
1.168,50909,55584
1.176,50911,55597
1.184,50913,55610
1.192,50916,55622
1.2,50920,55634
1.208,50924,55644
1.216,50930,55655
1.224,50935,55665
1.232,50940,55675
1.24,50943,55686
1.248,50946,55698
1.256,50949,55709
1.264,50953,55719
1.272,50961,55729
1.28,50971,55738
1.288,50984,55747
1.296,50996,55758
1.304,51005,55771
1.312,51010,55785
1.32,51010,55800
1.328,51008,55816
1.336,51007,55831
1.344,51008,55845
1.352,51012,55858
1.36,51018,55871
1.368,51024,55884
1.376,51030,55897
1.384,51036,55910
1.392,51041,55922
1.4,51045,55933
1.408,51050,55944
1.416,51054,55955
1.424,51058,55967
1.432,51062,55979
1.44,51066,55990
1.448,51069,55999
1.456,51071,56002
1.464,51069,55994
1.472,51063,55974
1.48,51052,55937
1.488,51033,55885
1.496,51008,55817
1.504,50976,55739
1.512,50941,55654
1.52,50905,55567
1.528,50869,55485
1.536,50836,55410
1.544,50807,55345
1.552,50783,55292
1.56,50763,55251
1.568,50749,55219
1.576,50738,55197
1.584,50731,55182
1.592,50726,55172
1.6,50723,55165
1.608,50722,55162
1.616,50721,55160
1.624,50720,55158
1.632,50720,55157
1.64,50720,55157
1.648,50720,55156
1.656,50720,55156
1.664,50719,55156
1.672,50720,55159
1.68,50721,55164
1.688,50725,55170
1.696,50730,55179
1.704,50737,55190
1.712,50743,55203
1.72,50746,55217
1.728,50746,55233
1.736,50744,55248
1.744,50741,55262
1.752,50740,55272
1.76,50744,55278
1.768,50750,55279
1.776,50758,55277
1.784,50765,55272
1.792,50769,55268
1.8,50770,55264
1.808,50768,55261
1.816,50766,55260
1.824,50765,55260
1.832,50765,55261
1.84,50766,55262
1.848,50769,55264
1.856,50772,55268
1.864,50775,55275
1.872,50778,55286
1.88,50780,55302
1.888,50782,55321
1.896,50784,55340
1.904,50788,55356
1.912,50793,55368
1.92,50800,55376
1.928,50808,55381
1.936,50816,55386
1.944,50824,55394
1.952,50830,55405
1.96,50836,55418
1.968,50841,55432
1.976,50846,55446
1.984,50851,55459
1.992,50856,55470
2,50861,55480
2.008,50866,55491
2.016,50871,55502
2.024,50876,55516
2.032,50881,55531
2.04,50886,55549
2.048,50891,55566
2.056,50896,55580
2.064,50900,55591
2.072,50905,55599
2.08,50910,55605
2.088,50915,55611
2.096,50920,55619
2.104,50925,55629
2.112,50929,55640
2.12,50934,55651
2.128,50938,55662
2.136,50942,55672
2.144,50947,55682
2.152,50951,55692
2.16,50955,55702
2.168,50960,55714
2.176,50964,55727
2.184,50969,55740
2.192,50974,55753
2.2,50978,55765
2.208,50982,55775
2.216,50987,55784
2.224,50991,55793
2.232,50996,55803
2.24,51001,55814
2.248,51006,55825
2.256,51011,55834
2.264,51014,55839
2.272,51014,55835
2.28,51009,55820
2.288,50998,55791
2.296,50981,55748
2.304,50958,55691
2.312,50930,55623
2.32,50899,55544
2.328,50867,55461
2.336,50837,55379
2.344,50809,55304
2.352,50785,55242
2.36,50764,55195
2.368,50747,55164
2.376,50733,55146
2.384,50722,55135
2.392,50715,55128
2.4,50711,55124
2.408,50709,55122
2.416,50709,55121
2.424,50710,55122
2.432,50712,55125
2.44,50714,55129
2.448,50716,55135
2.456,50718,55142
2.464,50720,55148
2.472,50723,55155
2.48,50727,55161
2.488,50732,55168
2.496,50738,55177
2.504,50744,55189
2.512,50751,55205
2.52,50758,55224
2.528,50765,55243
2.536,50771,55261
2.544,50777,55276
2.552,50781,55286
2.56,50785,55293
2.568,50787,55296
2.576,50788,55296
2.584,50788,55295
2.592,50786,55292
2.6,50782,55289
2.608,50779,55285
2.616,50777,55283
2.624,50778,55281
2.632,50784,55282
2.64,50792,55284
2.648,50801,55288
2.656,50807,55294
2.664,50810,55302
2.672,50809,55311
2.68,50807,55321
2.688,50806,55333
2.696,50807,55346
2.704,50811,55360
2.712,50817,55374
2.72,50825,55389
2.728,50832,55403
2.736,50839,55418
2.744,50845,55433
2.752,50850,55448
2.76,50854,55463
2.768,50860,55477
2.776,50868,55492
2.784,50878,55506
2.792,50889,55520
2.8,50899,55534
2.808,50908,55547
2.816,50913,55560
2.824,50916,55574
2.832,50917,55586
2.84,50918,55599
2.848,50920,55612
2.856,50924,55624
2.864,50929,55637
2.872,50934,55649
2.88,50939,55660
2.888,50944,55672
2.896,50949,55683
2.904,50954,55694
2.912,50960,55705
2.92,50965,55716
2.928,50967,55727
2.936,50967,55738
2.944,50965,55749
2.952,50963,55760
2.96,50964,55771
2.968,50969,55782
2.976,50978,55793
2.984,50989,55804
2.992,50999,55815
3,51008,55826
3.008,51014,55837
3.016,51018,55848
3.024,51021,55860
3.032,51025,55872
3.04,51031,55885
3.048,51038,55897
3.056,51044,55906
3.064,51047,55908
3.072,51042,55900
3.08,51028,55877
3.088,51005,55837
3.096,50976,55781
3.104,50944,55711
3.112,50912,55630
3.12,50881,55544
3.128,50853,55459
3.136,50825,55378
3.144,50799,55307
3.152,50773,55247
3.16,50750,55199
3.168,50731,55161
3.176,50716,55133
3.184,50707,55113
3.192,50701,55098
3.2,50699,55088
3.208,50698,55080
3.216,50697,55076
3.224,50693,55075
3.232,50687,55076
3.24,50678,55078
3.248,50670,55081
3.256,50665,55081
3.264,50664,55080
3.272,50669,55077
3.28,50677,55075
3.288,50685,55075
3.296,50693,55079
3.304,50699,55087
3.312,50704,55099
3.32,50708,55113
3.328,50713,55128
3.336,50719,55143
3.344,50726,55155
3.352,50732,55164
3.36,50738,55172
3.368,50742,55179
3.376,50744,55187
3.384,50744,55197
3.392,50742,55208
3.4,50740,55217
3.408,50738,55221
3.416,50738,55219
3.424,50738,55212
3.432,50740,55203
3.44,50742,55195
3.448,50744,55192
3.456,50747,55194
3.464,50749,55200
3.472,50752,55209
3.48,50755,55219
3.488,50759,55230
3.496,50764,55241
3.504,50769,55252
3.512,50775,55265
3.52,50780,55278
3.528,50787,55292
3.536,50793,55305
3.544,50799,55319
3.552,50806,55333
3.56,50812,55348
3.568,50818,55363
3.576,50824,55378
3.584,50830,55392
3.592,50836,55406
3.6,50842,55420
3.608,50847,55434
3.616,50853,55447
3.624,50859,55460
3.632,50865,55473
3.64,50870,55486
3.648,50875,55499
3.656,50881,55512
3.664,50886,55525
3.672,50891,55537
3.68,50896,55548
3.688,50901,55559
3.696,50906,55570
3.704,50911,55581
3.712,50916,55593
3.72,50920,55604
3.728,50925,55616
3.736,50929,55627
3.744,50933,55638
3.752,50937,55648
3.76,50942,55659
3.768,50946,55669
3.776,50950,55680
3.784,50955,55691
3.792,50959,55703
3.8,50964,55715
3.808,50967,55727
3.816,50971,55738
3.824,50976,55747
3.832,50982,55752
3.84,50989,55756
3.848,50997,55760
3.856,51003,55763
3.864,51006,55765
3.872,51003,55760
3.88,50994,55743
3.888,50976,55710
3.896,50952,55658
3.904,50923,55591
3.912,50890,55513
3.92,50856,55430
3.928,50822,55348
3.936,50789,55273
3.944,50760,55207
3.952,50734,55154
3.96,50713,55111
3.968,50697,55077
3.976,50686,55050
3.984,50678,55028
3.992,50672,55011
4,50669,54998
4.008,50667,54989
4.016,50665,54986
4.024,50664,54986
4.032,50662,54989
4.04,50661,54991
4.048,50659,54991
4.056,50658,54990
4.064,50658,54987
4.072,50658,54985
4.08,50658,54986
4.088,50660,54991
4.096,50662,54999
4.104,50665,55011
4.112,50669,55023
4.12,50674,55034
4.128,50682,55043
4.136,50691,55050
4.144,50701,55057
4.152,50711,55065
4.16,50718,55075
4.168,50721,55087
4.176,50722,55098
4.184,50719,55107
4.192,50716,55112
4.2,50714,55114
4.208,50712,55112
4.216,50712,55110
4.224,50712,55108
4.232,50713,55108
4.24,50713,55110
4.248,50714,55114
4.256,50714,55119
4.264,50715,55126
4.272,50718,55133
4.28,50724,55141
4.288,50733,55149
4.296,50745,55158
4.304,50756,55169
4.312,50766,55182
4.32,50771,55197
4.328,50773,55212
4.336,50774,55229
4.344,50775,55245
4.352,50778,55260
4.36,50783,55274
4.368,50791,55288
4.376,50798,55302
4.384,50805,55315
4.392,50811,55328
4.4,50816,55341
4.408,50821,55354
4.416,50825,55367
4.424,50831,55381
4.432,50838,55394
4.44,50847,55408
4.448,50858,55421
4.456,50868,55434
4.464,50877,55447
4.472,50883,55461
4.48,50886,55474
4.488,50887,55487
4.496,50888,55500
4.504,50891,55513
4.512,50895,55525
4.52,50900,55537
4.528,50905,55548
4.536,50911,55559
4.544,50916,55570
4.552,50922,55581
4.56,50927,55592
4.568,50932,55603
4.576,50935,55614
4.584,50936,55625
4.592,50935,55635
4.6,50934,55644
4.608,50935,55653
4.616,50939,55663
4.624,50946,55674
4.632,50955,55685
4.64,50963,55695
4.648,50969,55702
4.656,50971,55702
4.664,50967,55691
4.672,50957,55666
4.68,50941,55625
4.688,50919,55568
4.696,50892,55499
4.704,50862,55421
4.712,50830,55339
4.72,50796,55261
4.728,50762,55190
4.736,50728,55129
4.744,50696,55080
4.752,50670,55043
4.76,50652,55014
4.768,50643,54994
4.776,50640,54980
4.784,50643,54970
4.792,50648,54965
4.8,50652,54964
4.808,50654,54965
4.816,50656,54969
4.824,50657,54974
4.832,50658,54979
4.84,50660,54985
4.848,50664,54991
4.856,50668,54998
4.864,50673,55006
4.872,50679,55017
4.88,50683,55033
4.888,50687,55053
4.896,50690,55076
4.904,50693,55098
4.912,50697,55116
4.92,50703,55128
4.928,50710,55134
4.936,50717,55134
4.944,50722,55131
4.952,50725,55127
4.96,50725,55124
4.968,50723,55120
4.976,50720,55116
4.984,50717,55111
4.992,50715,55104
5,50712,55098
5.008,50711,55093
5.016,50710,55090
5.024,50710,55093
5.032,50711,55100
5.04,50713,55110
5.048,50715,55123
5.056,50719,55134
5.064,50723,55144
5.072,50728,55152
5.08,50733,55158
5.088,50738,55166
5.096,50744,55176
5.104,50750,55188
5.112,50755,55202
5.12,50761,55216
5.128,50767,55230
5.136,50773,55244
5.144,50779,55256
5.152,50784,55268
5.16,50790,55280
5.168,50796,55292
5.176,50801,55307
5.184,50806,55324
5.192,50810,55342
5.2,50814,55359
5.208,50819,55374
5.216,50823,55384
5.224,50828,55391
5.232,50834,55396
5.24,50838,55400
5.248,50843,55406
5.256,50847,55414
5.264,50850,55422
5.272,50853,55431
5.28,50857,55440
5.288,50860,55448
5.296,50864,55457
5.304,50867,55466
5.312,50871,55474
5.32,50874,55483
5.328,50878,55491
5.336,50882,55498
5.344,50886,55505
5.352,50890,55514
5.36,50895,55524
5.368,50900,55535
5.376,50904,55545
5.384,50907,55552
5.392,50906,55549
5.4,50901,55535
5.408,50891,55507
5.416,50875,55464
5.424,50853,55408
5.432,50826,55342
5.44,50797,55271
5.448,50766,55200
5.456,50737,55132
5.464,50709,55070
5.472,50685,55018
5.48,50666,54975
5.488,50650,54942
5.496,50639,54918
5.504,50631,54901
5.512,50626,54891
5.52,50623,54885
5.528,50622,54883
5.536,50622,54883
5.544,50623,54885
5.552,50624,54887
5.56,50626,54890
5.568,50628,54894
5.576,50630,54900
5.584,50633,54907
5.592,50637,54918
5.6,50642,54933
5.608,50647,54949
5.616,50654,54965
5.624,50661,54978
5.632,50669,54988
5.64,50677,54993
5.648,50684,54997
5.656,50691,55003
5.664,50695,55011
5.672,50698,55021
5.68,50698,55030
5.688,50696,55037
5.696,50693,55039
5.704,50690,55036
5.712,50687,55029
5.72,50685,55022
5.728,50684,55017
5.736,50683,55013
5.744,50682,55013
5.752,50682,55016
5.76,50681,55021
5.768,50681,55027
5.776,50684,55032
5.784,50689,55036
5.792,50699,55040
5.8,50710,55045
5.808,50721,55053
5.816,50730,55066
5.824,50736,55082
5.832,50738,55101
5.84,50738,55120
5.848,50738,55137
5.856,50740,55152
5.864,50745,55165
5.872,50751,55178
5.88,50759,55190
5.888,50766,55202
5.896,50771,55215
5.904,50775,55228
5.912,50778,55240
5.92,50780,55253
5.928,50785,55264
5.936,50793,55274
5.944,50805,55283
5.952,50819,55292
5.96,50833,55301
5.968,50842,55311
5.976,50846,55321
5.984,50844,55332
5.992,50839,55343
6,50834,55353
6.008,50832,55362
6.016,50834,55371
6.024,50838,55379
6.032,50844,55388
6.04,50849,55396
6.048,50852,55405
6.056,50854,55415
6.064,50855,55424
6.072,50858,55432
6.08,50864,55441
6.088,50875,55450
6.096,50888,55459
6.104,50900,55470
6.112,50910,55480
6.12,50914,55490
6.128,50912,55495
6.136,50904,55493
6.144,50893,55479
6.152,50878,55450
6.16,50859,55405
6.168,50836,55345
6.176,50808,55273
6.184,50776,55193
6.192,50741,55110
6.2,50705,55030
6.208,50672,54956
6.216,50642,54890
6.224,50616,54835
6.232,50596,54790
6.24,50580,54754
6.248,50568,54726
6.256,50559,54705
6.264,50552,54689
6.272,50546,54676
6.28,50540,54665
6.288,50535,54656
6.296,50531,54647
6.304,50527,54638
6.312,50523,54630
6.32,50520,54622
6.328,50517,54615
6.336,50514,54610
6.344,50512,54607
6.352,50513,54607
6.36,50516,54611
6.368,50520,54618
6.376,50525,54627
6.384,50527,54639
6.392,50527,54652
6.4,50524,54666
6.408,50522,54679
6.416,50523,54691
6.424,50529,54701
6.432,50537,54708
6.44,50548,54713
6.448,50556,54714
6.456,50562,54714
6.464,50563,54711
6.472,50562,54707
6.48,50559,54704
6.488,50557,54701
6.496,50555,54699
6.504,50555,54698
6.512,50556,54699
6.52,50557,54702
6.528,50560,54707
6.536,50563,54715
6.544,50566,54725
6.552,50570,54736
6.56,50575,54748
6.568,50580,54760
6.576,50585,54772
6.584,50591,54784
6.592,50597,54796
6.6,50603,54809
6.608,50609,54822
6.616,50615,54836
6.624,50620,54851
6.632,50626,54865
6.64,50632,54879
6.648,50639,54892
6.656,50646,54903
6.664,50653,54915
6.672,50659,54927
6.68,50662,54942
6.688,50663,54960
6.696,50663,54979
6.704,50662,54999
6.712,50664,55015
6.72,50669,55026
6.728,50677,55033
6.736,50687,55037
6.744,50697,55041
6.752,50705,55047
6.76,50711,55056
6.768,50715,55067
6.776,50718,55078
6.784,50722,55089
6.792,50726,55100
6.8,50730,55109
6.808,50735,55118
6.816,50740,55127
6.824,50744,55137
6.832,50749,55150
6.84,50754,55165
6.848,50759,55182
6.856,50763,55198
6.864,50768,55213
6.872,50773,55224
6.88,50778,55232
6.888,50783,55240
6.896,50789,55248
6.904,50794,55255
6.912,50798,55261
6.92,50799,55260
6.928,50796,55248
6.936,50786,55222
6.944,50771,55180
6.952,50748,55122
6.96,50720,55050
6.968,50688,54971
6.976,50654,54890
6.984,50619,54812
6.992,50587,54742
7,50559,54683
7.008,50535,54635
7.016,50515,54596
7.024,50500,54564
7.032,50488,54539
7.04,50480,54518
7.048,50474,54501
7.056,50469,54488
7.064,50465,54478
7.072,50462,54470
7.08,50459,54463
7.088,50456,54457
7.096,50454,54451
7.104,50451,54444
7.112,50449,54439
7.12,50447,54435
7.128,50447,54434
7.136,50447,54436
7.144,50449,54441
7.152,50452,54450
7.16,50457,54461
7.168,50463,54475
7.176,50469,54490
7.184,50476,54505
7.192,50483,54520
7.2,50489,54533
7.208,50494,54544
7.216,50498,54552
7.224,50501,54557
7.232,50503,54559
7.24,50504,54559
7.248,50503,54558
7.256,50501,54558
7.264,50499,54557
7.272,50498,54555
7.28,50497,54552
7.288,50498,54546
7.296,50501,54540
7.304,50506,54537
7.312,50511,54538
7.32,50516,54547
7.328,50520,54563
7.336,50523,54582
7.344,50526,54601
7.352,50529,54620
7.36,50533,54635
7.368,50539,54649
7.376,50545,54662
7.384,50552,54676
7.392,50558,54691
7.4,50565,54707
7.408,50572,54724
7.416,50578,54740
7.424,50585,54755
7.432,50592,54768
7.44,50598,54779
7.448,50604,54788
7.456,50610,54798
7.464,50615,54809
7.472,50621,54823
7.48,50627,54839
7.488,50632,54856
7.496,50638,54873
7.504,50643,54888
7.512,50649,54902
7.52,50655,54914
7.528,50660,54926
7.536,50666,54938
7.544,50671,54950
7.552,50675,54963
7.56,50679,54976
7.568,50683,54988
7.576,50688,55000
7.584,50695,55012
7.592,50705,55024
7.6,50716,55036
7.608,50728,55048
7.616,50736,55060
7.624,50741,55073
7.632,50742,55085
7.64,50742,55098
7.648,50741,55111
7.656,50743,55124
7.664,50747,55136
7.672,50753,55149
7.68,50760,55162
7.688,50767,55175
7.696,50773,55188
7.704,50778,55201
7.712,50781,55214
7.72,50784,55227
7.728,50789,55239
7.736,50797,55252
7.744,50808,55265
7.752,50821,55278
7.76,50834,55289
7.768,50842,55297
7.776,50843,55295
7.784,50834,55281
7.792,50816,55251
7.8,50791,55202
7.808,50761,55136
7.816,50728,55058
7.824,50692,54971
7.832,50655,54884
7.84,50618,54801
7.848,50584,54726
7.856,50555,54662
7.864,50531,54610
7.872,50513,54569
7.88,50498,54539
7.888,50486,54517
7.896,50475,54501
7.904,50465,54490
7.912,50457,54483
7.92,50452,54478
7.928,50451,54474
7.936,50453,54470
7.944,50456,54466
7.952,50459,54463
7.96,50461,54460
7.968,50461,54458
7.976,50460,54457
7.984,50459,54459
7.992,50460,54464
8,50463,54472
8.008,50470,54482
8.016,50477,54495
8.024,50484,54509
8.032,50488,54524
8.04,50488,54539
8.048,50486,54552
8.056,50483,54563
8.064,50482,54572
8.072,50485,54577
8.08,50492,54580
8.088,50500,54580
8.096,50508,54579
8.104,50512,54576
8.112,50513,54573
8.12,50511,54571
8.128,50509,54570
8.136,50507,54570
8.144,50507,54572
8.152,50510,54576
8.16,50514,54581
8.168,50520,54587
8.176,50524,54596
8.184,50526,54609
8.192,50525,54624
8.2,50523,54642
8.208,50521,54661
8.216,50522,54678
8.224,50529,54692
8.232,50540,54704
8.24,50554,54714
8.248,50568,54725
8.256,50579,54737
8.264,50588,54750
8.272,50594,54765
8.28,50600,54781
8.288,50605,54797
8.296,50611,54811
8.304,50618,54823
8.312,50625,54835
8.32,50632,54845
8.328,50637,54858
8.336,50642,54874
8.344,50646,54895
8.352,50648,54918
8.36,50651,54940
8.368,50655,54958
8.376,50660,54970
8.384,50667,54976
8.392,50675,54980
8.4,50682,54983
8.408,50689,54989
8.416,50695,54998
8.424,50700,55010
8.432,50705,55023
8.44,50710,55036
8.448,50715,55049
8.456,50721,55061
8.464,50726,55074
8.472,50732,55086
8.48,50737,55099
8.488,50743,55112
8.496,50748,55125
8.504,50754,55138
8.512,50760,55152
8.52,50766,55166
8.528,50772,55179
8.536,50778,55193
8.544,50784,55207
8.552,50790,55220
8.56,50796,55234
8.568,50801,55248
8.576,50807,55262
8.584,50812,55277
8.592,50818,55291
8.6,50824,55304
8.608,50830,55316
8.616,50836,55328
8.624,50842,55341
8.632,50848,55356
8.64,50854,55374
8.648,50859,55392
8.656,50864,55410
8.664,50869,55427
8.672,50875,55440
8.68,50880,55451
8.688,50886,55459
8.696,50891,55464
8.704,50894,55464
8.712,50893,55455
8.72,50886,55433
8.728,50872,55394
8.736,50850,55337
8.744,50821,55264
8.752,50787,55181
8.76,50750,55094
8.768,50712,55007
8.776,50676,54927
8.784,50644,54855
8.792,50616,54794
8.8,50595,54744
8.808,50579,54706
8.816,50567,54680
8.824,50560,54664
8.832,50555,54658
8.84,50552,54656
8.848,50551,54658
8.856,50551,54661
8.864,50552,54664
8.872,50553,54665
8.88,50555,54667
8.888,50556,54668
8.896,50558,54671
8.904,50560,54676
8.912,50562,54684
8.92,50565,54694
8.928,50569,54704
8.936,50574,54713
8.944,50580,54720
8.952,50587,54726
8.96,50594,54733
8.968,50600,54743
8.976,50607,54757
8.984,50612,54775
8.992,50617,54793
9,50620,54808
9.008,50622,54816
9.016,50622,54819
9.024,50622,54816
9.032,50621,54811
9.04,50619,54807
9.048,50618,54805
9.056,50617,54806
9.064,50616,54809
9.072,50617,54812
9.08,50618,54812
9.088,50621,54810
9.096,50625,54806
9.104,50631,54806
9.112,50636,54810
9.12,50642,54823
9.128,50648,54842
9.136,50653,54865
9.144,50657,54888
9.152,50662,54909
9.16,50668,54927
9.168,50675,54942
9.176,50682,54956
9.184,50689,54970
9.192,50696,54985
9.2,50703,55001
9.208,50709,55018
9.216,50714,55035
9.224,50719,55051
9.232,50725,55063
9.24,50733,55073
9.248,50745,55080
9.256,50758,55088
9.264,50771,55098
9.272,50781,55111
9.28,50786,55128
9.288,50787,55146
9.296,50786,55165
9.304,50784,55181
9.312,50785,55194
9.32,50788,55206
9.328,50794,55217
9.336,50800,55228
9.344,50807,55239
9.352,50812,55251
9.36,50816,55264
9.368,50818,55276
9.376,50820,55287
9.384,50825,55299
9.392,50833,55310
9.4,50846,55321
9.408,50862,55332
9.416,50877,55343
9.424,50888,55356
9.432,50893,55370
9.44,50893,55384
9.448,50889,55398
9.456,50885,55411
9.464,50884,55425
9.472,50887,55438
9.48,50892,55451
9.488,50899,55464
9.496,50906,55477
9.504,50912,55491
9.512,50917,55505
9.52,50922,55518
9.528,50927,55531
9.536,50932,55544
9.544,50937,55557
9.552,50943,55570
9.56,50948,55583
9.568,50954,55596
9.576,50960,55609
9.584,50965,55622
9.592,50970,55634
9.6,50975,55646
9.608,50979,55658
9.616,50984,55671
9.624,50990,55685
9.632,50996,55698
9.64,51002,55710
9.648,51006,55715
9.656,51006,55711
9.664,51000,55694
9.672,50986,55660
9.68,50967,55610
9.688,50944,55544
9.696,50917,55467
9.704,50889,55384
9.712,50860,55301
9.72,50829,55222
9.728,50797,55153
9.736,50766,55095
9.744,50738,55049
9.752,50716,55016
9.76,50702,54994
9.768,50694,54982
9.776,50691,54977
9.784,50691,54978
9.792,50694,54983
9.8,50697,54991
9.808,50702,55001
9.816,50707,55011
9.824,50712,55023
9.832,50718,55035
9.84,50722,55048
9.848,50726,55062
9.856,50728,55077
9.864,50732,55093
9.872,50738,55111
9.88,50746,55129
9.888,50756,55148
9.896,50767,55165
9.904,50777,55182
9.912,50786,55196
9.92,50793,55208
9.928,50796,55217
9.936,50798,55222
9.944,50799,55224
9.952,50798,55223
9.96,50798,55220
9.968,50798,55215
9.976,50798,55209
9.984,50796,55204
9.992,50790,55200
10,50782,55196
10.008,50772,55195
10.016,50763,55196
10.024,50759,55199
10.032,50762,55204
10.04,50770,55212
10.048,50782,55221
10.056,50795,55232
10.064,50805,55245
10.072,50812,55258
10.08,50818,55272
10.088,50822,55286
10.096,50827,55301
10.104,50835,55316
10.112,50844,55331
10.12,50853,55346
10.128,50861,55362
10.136,50865,55377
10.144,50864,55393
10.152,50860,55409
10.16,50857,55425
10.168,50858,55440
10.176,50865,55454
10.184,50877,55468
10.192,50891,55481
10.2,50906,55493
10.208,50918,55506
10.216,50926,55519
10.224,50930,55532
10.232,50934,55544
10.24,50937,55557
10.248,50942,55568
10.256,50948,55579
10.264,50956,55589
10.272,50963,55599
10.28,50968,55609
10.288,50970,55621
10.296,50967,55635
10.304,50962,55650
10.312,50958,55666
10.32,50958,55679
10.328,50963,55689
10.336,50973,55697
10.344,50985,55704
10.352,50998,55711
10.36,51008,55719
10.368,51014,55728
10.376,51019,55740
10.384,51022,55752
10.392,51025,55765
10.4,51030,55776
10.408,51035,55787
10.416,51042,55796
10.424,51048,55806
10.432,51053,55818
10.44,51057,55833
10.448,51058,55852
10.456,51058,55874
10.464,51058,55894
10.472,51060,55911
10.48,51065,55923
10.488,51073,55930
10.496,51083,55934
10.504,51093,55939
10.512,51101,55946
10.52,51107,55951
10.528,51108,55952
10.536,51104,55941
10.544,51095,55915
10.552,51079,55872
10.56,51057,55814
10.568,51029,55744
10.576,50998,55667
10.584,50965,55587
10.592,50931,55511
10.6,50901,55442
10.608,50874,55383
10.616,50852,55336
10.624,50835,55300
10.632,50823,55276
10.64,50815,55261
10.648,50811,55255
10.656,50811,55255
10.664,50812,55260
10.672,50816,55269
10.68,50821,55280
10.688,50826,55293
10.696,50832,55306
10.704,50838,55320
10.712,50845,55334
10.72,50851,55348
10.728,50858,55365
10.736,50866,55384
10.744,50874,55407
10.752,50883,55432
10.76,50892,55457
10.768,50901,55480
10.776,50909,55499
10.784,50917,55513
10.792,50923,55523
10.8,50928,55530
10.808,50932,55536
10.816,50935,55540
10.824,50936,55541
10.832,50936,55540
10.84,50935,55538
10.848,50933,55533
10.856,50931,55529
10.864,50928,55527
10.872,50926,55525
10.88,50925,55523
10.888,50924,55521
10.896,50926,55517
10.904,50928,55513
10.912,50933,55511
10.92,50938,55515
10.928,50942,55525
10.936,50947,55541
10.944,50951,55561
10.952,50954,55581
10.96,50959,55601
10.968,50964,55618
10.976,50970,55633
10.984,50977,55648
10.992,50984,55663
11,50992,55679
11.008,50999,55696
11.016,51005,55715
11.024,51012,55733
11.032,51018,55749
11.04,51025,55763
11.048,51032,55774
11.056,51039,55784
11.064,51045,55793
11.072,51052,55804
11.08,51058,55818
11.088,51064,55835
11.096,51070,55854
11.104,51075,55873
11.112,51080,55889
11.12,51085,55903
11.128,51090,55914
11.136,51096,55925
11.144,51101,55936
11.152,51106,55948
11.16,51110,55961
11.168,51112,55973
11.176,51115,55984
11.184,51119,55993
11.192,51126,55998
11.2,51135,56001
11.208,51147,56005
11.216,51158,56012
11.224,51166,56024
11.232,51171,56040
11.24,51171,56058
11.248,51170,56075
11.256,51168,56091
11.264,51169,56104
11.272,51172,56115
11.28,51177,56126
11.288,51183,56137
11.296,51189,56149
11.304,51194,56162
11.312,51198,56175
11.32,51201,56188
11.328,51204,56200
11.336,51209,56211
11.344,51216,56222
11.352,51225,56233
11.36,51237,56245
11.368,51248,56258
11.376,51258,56272
11.384,51263,56284
11.392,51262,56291
11.4,51257,56289
11.408,51247,56273
11.416,51232,56239
11.424,51211,56187
11.432,51185,56118
11.44,51154,56036
11.448,51118,55946
11.456,51079,55854
11.464,51041,55764
11.472,51004,55682
11.48,50971,55612
11.488,50944,55553
11.496,50924,55508
11.504,50911,55475
11.512,50903,55452
11.52,50899,55439
11.528,50897,55432
11.536,50896,55430
11.544,50895,55432
11.552,50894,55436
11.56,50894,55441
11.568,50894,55447
11.576,50896,55452
11.584,50898,55458
11.592,50900,55464
11.6,50903,55470
11.608,50907,55476
11.616,50912,55484
11.624,50918,55492
11.632,50923,55503
11.64,50924,55516
11.648,50923,55530
11.656,50919,55546
11.664,50917,55563
11.672,50918,55578
11.68,50925,55593
11.688,50937,55607
11.696,50952,55618
11.704,50965,55627
11.712,50974,55635
11.72,50979,55640
11.728,50980,55643
11.736,50978,55645
11.744,50977,55646
11.752,50976,55645
11.76,50977,55644
11.768,50979,55642
11.776,50982,55642
11.784,50983,55644
11.792,50981,55650
11.8,50977,55660
11.808,50972,55673
11.816,50968,55687
11.824,50967,55700
11.832,50972,55711
11.84,50982,55720
11.848,50995,55728
11.856,51008,55737
11.864,51019,55749
11.872,51027,55763
11.88,51033,55779
11.888,51039,55796
11.896,51045,55814
11.904,51051,55830
11.912,51058,55844
11.92,51066,55857
11.928,51073,55870
11.936,51080,55885
11.944,51086,55903
11.952,51090,55925
11.96,51093,55950
11.968,51097,55975
11.976,51101,55995
11.984,51106,56008
11.992,51113,56014
12,51121,56018
12.008,51129,56021
12.016,51136,56027
12.024,51141,56037
12.032,51146,56050
12.04,51151,56064
12.048,51156,56077
12.056,51160,56088
12.064,51165,56097
12.072,51170,56106
12.08,51175,56116
12.088,51180,56130
12.096,51184,56147
12.104,51189,56167
12.112,51194,56186
12.12,51198,56203
12.128,51203,56214
12.136,51208,56221
12.144,51213,56225
12.152,51218,56229
12.16,51223,56236
12.168,51227,56246
12.176,51232,56259
12.184,51237,56273
12.192,51242,56286
12.2,51246,56299
12.208,51251,56310
12.216,51257,56321
12.224,51262,56332
12.232,51268,56344
12.24,51273,56359
12.248,51277,56376
12.256,51280,56395
12.264,51284,56414
12.272,51288,56430
12.28,51292,56443
12.288,51299,56452
12.296,51305,56458
12.304,51311,56461
12.312,51313,56457
12.32,51311,56442
12.328,51302,56412
12.336,51285,56364
12.344,51260,56298
12.352,51228,56217
12.36,51192,56127
12.368,51153,56033
12.376,51113,55941
12.384,51077,55857
12.392,51044,55782
12.4,51016,55720
12.408,50995,55671
12.416,50978,55635
12.424,50967,55612
12.432,50960,55599
12.44,50957,55594
12.448,50956,55595
12.456,50957,55600
12.464,50960,55606
12.472,50963,55614
12.48,50967,55621
12.488,50970,55629
12.496,50974,55636
12.504,50977,55643
12.512,50980,55650
12.52,50983,55658
12.528,50987,55666
12.536,50991,55675
12.544,50995,55687
12.552,51001,55701
12.56,51006,55716
12.568,51012,55732
12.576,51019,55749
12.584,51025,55764
12.592,51032,55779
12.6,51038,55792
12.608,51044,55803
12.616,51049,55812
12.624,51053,55820
12.632,51056,55824
12.64,51057,55827
12.648,51058,55828
12.656,51058,55830
12.664,51057,55831
12.672,51056,55833
12.68,51055,55833
12.688,51055,55831
12.696,51056,55826
12.704,51058,55820
12.712,51060,55816
12.72,51063,55817
12.728,51067,55825
12.736,51071,55841
12.744,51075,55860
12.752,51079,55881
12.76,51084,55899
12.768,51089,55915
12.776,51095,55929
12.784,51101,55941
12.792,51107,55955
12.8,51114,55970
12.808,51120,55987
12.816,51126,56006
12.824,51132,56023
12.832,51137,56039
12.84,51143,56052
12.848,51151,56060
12.856,51161,56066
12.864,51172,56072
12.872,51183,56082
12.88,51191,56096
12.888,51197,56115
12.896,51200,56136
12.904,51200,56157
12.912,51201,56175
12.92,51203,56189
12.928,51207,56201
12.936,51213,56212
12.944,51219,56223
12.952,51225,56234
12.96,51230,56246
12.968,51233,56258
12.976,51235,56270
12.984,51237,56282
12.992,51241,56292
13,51249,56301
13.008,51262,56309
13.016,51277,56317
13.024,51291,56327
13.032,51302,56338
13.04,51306,56351
13.048,51304,56364
13.056,51298,56378
13.064,51293,56391
13.072,51292,56403
13.08,51294,56415
13.088,51299,56426
13.096,51306,56437
13.104,51312,56449
13.112,51316,56461
13.12,51318,56474
13.128,51320,56486
13.136,51324,56498
13.144,51332,56511
13.152,51343,56523
13.16,51357,56535
13.168,51370,56547
13.176,51380,56558
13.184,51384,56570
13.192,51383,56581
13.2,51380,56593
13.208,51377,56606
13.216,51378,56619
13.224,51380,56630
13.232,51384,56635
13.24,51385,56630
13.248,51381,56609
13.256,51368,56572
13.264,51348,56516
13.272,51319,56444
13.28,51285,56360
13.288,51247,56269
13.296,51211,56178
13.304,51177,56092
13.312,51148,56015
13.32,51123,55949
13.328,51102,55897
13.336,51084,55858
13.344,51068,55832
13.352,51056,55815
13.36,51047,55807
13.368,51043,55806
13.376,51043,55809
13.384,51045,55816
13.392,51049,55825
13.4,51053,55835
13.408,51058,55846
13.416,51063,55856
13.424,51070,55867
13.432,51076,55878
13.44,51081,55889
13.448,51083,55901
13.456,51083,55914
13.464,51080,55928
13.472,51079,55944
13.48,51081,55960
13.488,51088,55977
13.496,51100,55993
13.504,51114,56009
13.512,51127,56023
13.52,51137,56035
13.528,51144,56045
13.536,51148,56052
13.544,51149,56057
13.552,51150,56060
13.56,51150,56061
13.568,51150,56060
13.576,51149,56058
13.584,51148,56055
13.592,51147,56053
13.6,51146,56053
13.608,51146,56053
13.616,51146,56055
13.624,51147,56059
13.632,51148,56063
13.64,51151,56069
13.648,51154,56075
13.656,51158,56083
13.664,51162,56093
13.672,51167,56104
13.68,51172,56117
13.688,51177,56131
13.696,51181,56146
13.704,51187,56161
13.712,51194,56175
13.72,51201,56189
13.728,51209,56202
13.736,51216,56217
13.744,51220,56234
13.752,51221,56254
13.76,51220,56276
13.768,51218,56297
13.776,51220,56315
13.784,51226,56329
13.792,51236,56338
13.8,51248,56345
13.808,51260,56352
13.816,51270,56360
13.824,51277,56370
13.832,51281,56382
13.84,51285,56395
13.848,51289,56407
13.856,51293,56418
13.864,51297,56428
13.872,51302,56437
13.88,51306,56446
13.888,51310,56455
13.896,51315,56467
13.904,51318,56481
13.912,51322,56497
13.92,51326,56512
13.928,51330,56525
13.936,51334,56535
13.944,51338,56542
13.952,51342,56546
13.96,51346,56551
13.968,51350,56558
13.976,51354,56567
13.984,51359,56577
13.992,51363,56589
14,51367,56600
14.008,51372,56611
14.016,51376,56622
14.024,51380,56631
14.032,51384,56641
14.04,51389,56651
14.048,51393,56663
14.056,51397,56676
14.064,51402,56691
14.072,51406,56706
14.08,51411,56720
14.088,51415,56732
14.096,51420,56741
14.104,51424,56748
14.112,51428,56755
14.12,51432,56762
14.128,51436,56772
14.136,51440,56783
14.144,51445,56796
14.152,51450,56809
14.16,51454,56819
14.168,51458,56823
14.176,51458,56817
14.184,51453,56797
14.192,51440,56760
14.2,51421,56705
14.208,51394,56635
14.216,51362,56554
14.224,51326,56467
14.232,51289,56378
14.24,51253,56295
14.248,51221,56219
14.256,51192,56155
14.264,51169,56105
14.272,51151,56067
14.28,51138,56040
14.288,51130,56024
14.296,51127,56017
14.304,51126,56016
14.312,51127,56022
14.32,51130,56032
14.328,51134,56045
14.336,51139,56058
14.344,51144,56068
14.352,51151,56075
14.36,51158,56079
14.368,51166,56085
14.376,51175,56094
14.384,51182,56110
14.392,51189,56131
14.4,51195,56156
14.408,51200,56182
14.416,51205,56204
14.424,51211,56223
14.432,51217,56238
14.44,51223,56250
14.448,51228,56259
14.456,51232,56266
14.464,51235,56272
14.472,51237,56277
14.48,51237,56278
14.488,51236,56277
14.496,51234,56270
14.504,51232,56260
14.512,51230,56248
14.52,51227,56237
14.528,51225,56229
14.536,51224,56227
14.544,51223,56231
14.552,51223,56238
14.56,51224,56247
14.568,51226,56256
14.576,51228,56264
14.584,51231,56272
14.592,51235,56280
14.6,51239,56290
14.608,51244,56301
14.616,51248,56314
14.624,51252,56327
14.632,51257,56340
14.64,51262,56354
14.648,51269,56367
14.656,51278,56381
14.664,51289,56394
14.672,51299,56407
14.68,51307,56420
14.688,51311,56433
14.696,51313,56445
14.704,51314,56457
14.712,51314,56469
14.72,51316,56481
14.728,51319,56492
14.736,51325,56502
14.744,51330,56513
14.752,51336,56523
14.76,51340,56533
14.768,51343,56544
14.776,51344,56553
14.784,51345,56562
14.792,51348,56570
14.8,51355,56576
14.808,51366,56581
14.816,51379,56586
14.824,51391,56592
14.832,51400,56601
14.84,51403,56611
14.848,51400,56622
14.856,51395,56632
14.864,51390,56642
14.872,51388,56651
14.88,51389,56660
14.888,51392,56668
14.896,51397,56676
14.904,51401,56685
14.912,51405,56694
14.92,51408,56703
14.928,51410,56711
14.936,51413,56720
14.944,51416,56729
14.952,51420,56738
14.96,51425,56748
14.968,51431,56757
14.976,51436,56767
14.984,51441,56777
14.992,51445,56786
15,51447,56796
15.008,51449,56805
15.016,51451,56814
15.024,51454,56823
15.032,51457,56834
15.04,51462,56845
15.048,51466,56855
15.056,51470,56863
15.064,51472,56864
15.072,51470,56854
15.08,51463,56830
15.088,51449,56790
15.096,51427,56735
15.104,51400,56668
15.112,51368,56592
15.12,51336,56514
15.128,51305,56437
15.136,51276,56366
15.144,51251,56304
15.152,51229,56254
15.16,51212,56215
15.168,51198,56188
15.176,51188,56172
15.184,51183,56164
15.192,51181,56163
15.2,51182,56167
15.208,51185,56175
15.216,51190,56185
15.224,51196,56198
15.232,51202,56211
15.24,51209,56226
15.248,51214,56241
15.256,51219,56257
15.264,51223,56274
15.272,51228,56292
15.28,51234,56311
15.288,51241,56330
15.296,51251,56349
15.304,51260,56367
15.312,51270,56383
15.32,51278,56398
15.328,51284,56410
15.336,51289,56419
15.344,51291,56425
15.352,51292,56429
15.36,51292,56429
15.368,51293,56426
15.376,51293,56421
15.384,51293,56415
15.392,51291,56408
15.4,51285,56404
15.408,51275,56401
15.416,51263,56401
15.424,51252,56401
15.432,51245,56403
15.44,51246,56404
15.448,51253,56404
15.456,51263,56406
15.464,51275,56409
15.472,51284,56414
15.48,51290,56422
15.488,51293,56432
15.496,51296,56443
15.504,51299,56455
15.512,51303,56467
15.52,51309,56480
15.528,51316,56493
15.536,51323,56506
15.544,51329,56519
15.552,51334,56532
15.56,51336,56545
15.568,51336,56558
15.576,51337,56571
15.584,51339,56583
15.592,51344,56595
15.6,51352,56606
15.608,51361,56617
15.616,51369,56628
15.624,51376,56639
15.632,51381,56649
15.64,51385,56660
15.648,51388,56669
15.656,51391,56679
15.664,51395,56687
15.672,51399,56694
15.68,51403,56701
15.688,51407,56709
15.696,51410,56720
15.704,51414,56734
15.712,51417,56749
15.72,51420,56764
15.728,51423,56775
15.736,51426,56782
15.744,51429,56786
15.752,51432,56787
15.76,51435,56788
15.768,51438,56791
15.776,51441,56797
15.784,51444,56805
15.792,51447,56814
15.8,51450,56824
15.808,51454,56832
15.816,51457,56840
15.824,51461,56846
15.832,51465,56853
15.84,51468,56861
15.848,51471,56872
15.856,51472,56887
15.864,51473,56904
15.872,51474,56920
15.88,51477,56934
15.888,51481,56944
15.896,51486,56949
15.904,51492,56949
15.912,51497,56946
15.92,51498,56935
15.928,51493,56916
15.936,51482,56883
15.944,51464,56835
15.952,51440,56773
15.96,51410,56698
15.968,51377,56617
15.976,51343,56534
15.984,51310,56455
15.992,51279,56383
16,51252,56322
16.008,51230,56272
16.016,51213,56234
16.024,51200,56207
16.032,51191,56189
16.04,51185,56178
16.048,51182,56173
16.056,51182,56173
16.064,51183,56175
16.072,51185,56180
16.08,51188,56185
16.088,51191,56192
16.096,51194,56198
16.104,51197,56205
16.112,51200,56211
16.12,51202,56218
16.128,51205,56226
16.136,51209,56234
16.144,51212,56242
16.152,51216,56250
16.16,51221,56259
16.168,51226,56269
16.176,51231,56281
16.184,51236,56293
16.192,51240,56305
16.2,51244,56316
16.208,51247,56324
16.216,51249,56328
16.224,51250,56330
16.232,51250,56329
16.24,51249,56326
16.248,51247,56322
16.256,51245,56318
16.264,51243,56314
16.272,51241,56310
16.28,51239,56308
16.288,51238,56306
16.296,51237,56304
16.304,51238,56302
16.312,51239,56301
16.32,51241,56301
16.328,51244,56305
16.336,51247,56313
16.344,51250,56323
16.352,51253,56336
16.36,51257,56350
16.368,51261,56362
16.376,51265,56374
16.384,51270,56385
16.392,51275,56395
16.4,51279,56405
16.408,51284,56416
16.416,51288,56428
16.424,51292,56441
16.432,51295,56453
16.44,51298,56464
16.448,51303,56470
16.456,51308,56473
16.464,51316,56473
16.472,51324,56473
16.48,51332,56476
16.488,51338,56485
16.496,51341,56498
16.504,51342,56515
16.512,51341,56531
16.52,51340,56544
16.528,51340,56554
16.536,51342,56561
16.544,51345,56567
16.552,51348,56573
16.56,51352,56580
16.568,51355,56587
16.576,51358,56596
16.584,51360,56604
16.592,51363,56611
16.6,51365,56617
16.608,51368,56620
16.616,51371,56622
16.624,51374,56624
16.632,51377,56628
16.64,51380,56636
16.648,51382,56646
16.656,51385,56658
16.664,51388,56669
16.672,51391,56680
16.68,51394,56689
16.688,51397,56697
16.696,51401,56704
16.704,51405,56711
16.712,51408,56719
16.72,51410,56727
16.728,51411,56735
16.736,51413,56743
16.744,51415,56750
16.752,51420,56758
16.76,51428,56767
16.768,51438,56776
16.776,51447,56784
16.784,51452,56788
16.792,51451,56783
16.8,51443,56766
16.808,51427,56734
16.816,51404,56686
16.824,51377,56624
16.832,51346,56551
16.84,51315,56471
16.848,51283,56390
16.856,51251,56314
16.864,51221,56246
16.872,51194,56188
16.88,51170,56142
16.888,51151,56105
16.896,51138,56078
16.904,51132,56057
16.912,51134,56042
16.92,51141,56032
16.928,51150,56028
16.936,51155,56029
16.944,51156,56033
16.952,51152,56039
16.96,51144,56045
16.968,51137,56050
16.976,51132,56054
16.984,51131,56056
16.992,51133,56059
17,51136,56062
17.008,51139,56068
17.016,51142,56075
17.024,51145,56083
17.032,51148,56093
17.04,51151,56104
17.048,51155,56114
17.056,51160,56125
17.064,51166,56134
17.072,51172,56142
17.08,51178,56147
17.088,51181,56151
17.096,51182,56152
17.104,51180,56152
17.112,51177,56149
17.12,51173,56145
17.128,51169,56141
17.136,51166,56136
17.144,51163,56132
17.152,51162,56129
17.16,51161,56127
17.168,51161,56127
17.176,51162,56129
17.184,51163,56132
17.192,51164,56136
17.2,51165,56142
17.208,51167,56149
17.216,51170,56157
17.224,51174,56165
17.232,51179,56174
17.24,51185,56184
17.248,51190,56194
17.256,51195,56203
17.264,51199,56213
17.272,51202,56223
17.28,51205,56233
17.288,51208,56243
17.296,51212,56253
17.304,51216,56262
17.312,51220,56272
17.32,51224,56281
17.328,51228,56289
17.336,51232,56298
17.344,51235,56306
17.352,51239,56314
17.36,51241,56321
17.368,51243,56329
17.376,51245,56337
17.384,51247,56344
17.392,51250,56352
17.4,51253,56359
17.408,51257,56366
17.416,51261,56372
17.424,51265,56379
17.432,51268,56386
17.44,51270,56393
17.448,51272,56399
17.456,51274,56406
17.464,51276,56413
17.472,51280,56420
17.48,51285,56426
17.488,51290,56433
17.496,51293,56440
17.504,51293,56448
17.512,51290,56458
17.52,51284,56468
17.528,51278,56478
17.536,51276,56487
17.544,51280,56495
17.552,51288,56501
17.56,51300,56506
17.568,51311,56512
17.576,51320,56518
17.584,51325,56525
17.592,51328,56533
17.6,51329,56541
17.608,51331,56550
17.616,51334,56558
17.624,51338,56567
17.632,51344,56575
17.64,51349,56583
17.648,51353,56590
17.656,51353,56598
17.664,51350,56605
17.672,51345,56613
17.68,51341,56622
17.688,51340,56631
17.696,51344,56638
17.704,51351,56642
17.712,51357,56638
17.72,51360,56622
17.728,51354,56591
17.736,51339,56546
17.744,51316,56486
17.752,51288,56416
17.76,51255,56340
17.768,51223,56262
17.776,51191,56189
17.784,51163,56123
17.792,51138,56067
17.8,51118,56024
17.808,51103,55992
17.816,51092,55971
17.824,51084,55958
17.832,51080,55950
17.84,51078,55946
17.848,51078,55944
17.856,51079,55943
17.864,51080,55944
17.872,51082,55947
17.88,51084,55951
17.888,51086,55955
17.896,51087,55960
17.904,51089,55966
17.912,51091,55971
17.92,51094,55977
17.928,51098,55982
17.936,51103,55990
17.944,51108,55999
17.952,51110,56013
17.96,51110,56029
17.968,51108,56047
17.976,51106,56064
17.984,51105,56076
17.992,51108,56081
18,51114,56079
18.008,51120,56072
18.016,51125,56064
18.024,51128,56055
18.032,51127,56048
18.04,51124,56043
18.048,51121,56039
18.056,51118,56036
18.064,51116,56033
18.072,51116,56030
18.08,51116,56027
18.088,51117,56027
18.096,51118,56030
18.104,51120,56037
18.112,51122,56049
18.12,51124,56063
18.128,51126,56079
18.136,51129,56092
18.144,51133,56101
18.152,51137,56106
18.16,51142,56110
18.168,51148,56113
18.176,51153,56119
18.184,51157,56127
18.192,51161,56137
18.2,51165,56149
18.208,51170,56160
18.216,51174,56170
18.224,51178,56179
18.232,51182,56186
18.24,51186,56194
18.248,51190,56202
18.256,51193,56212
18.264,51197,56224
18.272,51200,56238
18.28,51203,56252
18.288,51206,56263
18.296,51209,56270
18.304,51213,56274
18.312,51216,56277
18.32,51219,56279
18.328,51221,56282
18.336,51224,56288
18.344,51227,56296
18.352,51230,56304
18.36,51232,56311
18.368,51235,56318
18.376,51238,56324
18.384,51241,56329
18.392,51244,56336
18.4,51247,56345
18.408,51250,56356
18.416,51253,56370
18.424,51256,56383
18.432,51259,56394
18.44,51262,56402
18.448,51266,56407
18.456,51269,56411
18.464,51273,56415
18.472,51276,56420
18.48,51280,56427
18.488,51283,56435
18.496,51287,56444
18.504,51290,56453
18.512,51293,56461
18.52,51297,56470
18.528,51300,56479
18.536,51304,56488
18.544,51307,56498
18.552,51311,56505
18.56,51315,56512
18.568,51319,56517
18.576,51322,56522
18.584,51326,56528
18.592,51329,56535
18.6,51332,56546
18.608,51335,56558
18.616,51339,56570
18.624,51343,56582
18.632,51346,56589
18.64,51347,56590
18.648,51345,56580
18.656,51338,56558
18.664,51326,56522
18.672,51306,56472
18.68,51282,56410
18.688,51253,56340
18.696,51221,56264
18.704,51189,56185
18.712,51159,56108
18.72,51131,56037
18.728,51108,55976
18.736,51089,55930
18.744,51075,55899
18.752,51065,55884
18.76,51059,55878
18.768,51055,55879
18.776,51053,55881
18.784,51053,55883
18.792,51054,55885
18.8,51055,55887
18.808,51056,55889
18.816,51058,55892
18.824,51059,55896
18.832,51061,55900
18.84,51062,55904
18.848,51064,55908
18.856,51066,55913
18.864,51070,55920
18.872,51074,55928
18.88,51078,55938
18.888,51083,55948
18.896,51088,55959
18.904,51092,55970
18.912,51096,55980
18.92,51099,55989
18.928,51102,55995
18.936,51104,56000
18.944,51105,56001
18.952,51105,56001
18.96,51105,55999
18.968,51103,55996
18.976,51101,55993
18.984,51098,55991
18.992,51095,55987
19,51093,55981
19.008,51094,55974
19.016,51098,55965
19.024,51105,55959
19.032,51111,55958
19.04,51116,55963
19.048,51119,55975
19.056,51118,55989
19.064,51116,56005
19.072,51114,56019
19.08,51115,56031
19.088,51118,56041
19.096,51123,56051
19.104,51129,56061
19.112,51135,56072
19.12,51140,56084
19.128,51143,56096
19.136,51146,56108
19.144,51148,56120
19.152,51152,56130
19.16,51159,56139
19.168,51169,56147
19.176,51182,56155
19.184,51194,56164
19.192,51202,56173
19.2,51206,56184
19.208,51205,56194
19.216,51201,56204
19.224,51197,56213
19.232,51196,56222
19.24,51197,56230
19.248,51201,56238
19.256,51205,56246
19.264,51210,56253
19.272,51213,56261
19.28,51216,56269
19.288,51217,56276
19.296,51219,56284
19.304,51222,56292
19.312,51226,56300
19.32,51232,56308
19.328,51240,56316
19.336,51247,56324
19.344,51254,56332
19.352,51258,56341
19.36,51259,56349
19.368,51259,56358
19.376,51258,56367
19.384,51259,56375
19.392,51261,56384
19.4,51264,56393
19.408,51268,56402
19.416,51272,56411
19.424,51276,56421
19.432,51281,56430
19.44,51285,56440
19.448,51289,56449
19.456,51292,56458
19.464,51294,56468
19.472,51295,56477
19.48,51297,56486
19.488,51299,56496
19.496,51303,56505
19.504,51308,56515
19.512,51314,56524
19.52,51320,56533
19.528,51325,56542
19.536,51329,56551
19.544,51332,56559
19.552,51335,56568
19.56,51337,56577
19.568,51340,56586
19.576,51344,56595
19.584,51350,56603
19.592,51356,56610
19.6,51359,56614
19.608,51356,56611
19.616,51345,56599
19.624,51326,56574
19.632,51301,56533
19.64,51273,56476
19.648,51244,56403
19.656,51218,56322
19.664,51192,56237
19.672,51167,56156
19.68,51142,56084
19.688,51118,56024
19.696,51096,55976
19.704,51078,55939
19.712,51064,55912
19.72,51055,55893
19.728,51050,55880
19.736,51048,55873
19.744,51047,55870
19.752,51047,55869
19.76,51047,55871
19.768,51047,55873
19.776,51046,55875
19.784,51045,55878
19.792,51046,55880
19.8,51047,55882
19.808,51049,55884
19.816,51052,55888
19.824,51055,55893
19.832,51059,55900
19.84,51063,55908
19.848,51066,55918
19.856,51071,55930
19.864,51075,55941
19.872,51080,55950
19.88,51084,55958
19.888,51089,55965
19.896,51092,55971
19.904,51094,55979
19.912,51095,55988
19.92,51096,55998
19.928,51095,56005
19.936,51094,56007
19.944,51093,56003
19.952,51091,55994
19.96,51089,55983
19.968,51088,55972
19.976,51087,55966
19.984,51087,55964
19.992,51088,55966
20,51089,55971
20.008,51091,55977
20.016,51094,55984
20.024,51096,55991
20.032,51100,55999
20.04,51103,56007
20.048,51107,56017
20.056,51112,56028
20.064,51117,56041
20.072,51122,56055
20.08,51127,56069
20.088,51132,56082
20.096,51136,56094
20.104,51141,56103
20.112,51146,56112
20.12,51150,56120
20.128,51155,56129
20.136,51159,56139
20.144,51163,56149
20.152,51168,56158
20.16,51172,56168
20.168,51176,56177
20.176,51180,56187
20.184,51183,56198
20.192,51187,56209
20.2,51190,56218
20.208,51194,56224
20.216,51197,56226
20.224,51201,56225
20.232,51204,56224
20.24,51208,56227
20.248,51211,56235
20.256,51214,56248
20.264,51217,56265
20.272,51220,56281
20.28,51223,56294
20.288,51227,56304
20.296,51230,56312
20.304,51234,56318
20.312,51237,56326
20.32,51240,56335
20.328,51244,56347
20.336,51247,56358
20.344,51250,56368
20.352,51254,56373
20.36,51258,56374
20.368,51262,56373
20.376,51267,56372
20.384,51271,56376
20.392,51275,56386
20.4,51279,56402
20.408,51283,56421
20.416,51286,56440
20.424,51289,56456
20.432,51293,56468
20.44,51297,56477
20.448,51300,56485
20.456,51305,56493
20.464,51309,56502
20.472,51313,56513
20.48,51316,56524
20.488,51319,56536
20.496,51321,56546
20.504,51325,56552
20.512,51330,56555
20.52,51338,56555
20.528,51347,56556
20.536,51357,56560
20.544,51364,56571
20.552,51368,56586
20.56,51368,56602
20.568,51365,56612
20.576,51358,56611
20.584,51349,56594
20.592,51336,56561
20.6,51319,56512
20.608,51296,56449
20.616,51269,56377
20.624,51238,56301
20.632,51204,56225
20.64,51170,56153
20.648,51139,56088
20.656,51113,56031
20.664,51096,55984
20.672,51088,55946
20.68,51087,55919
20.688,51090,55901
20.696,51091,55892
20.704,51089,55891
20.712,51083,55894
20.72,51074,55900
20.728,51067,55907
20.736,51064,55914
20.744,51064,55920
20.752,51067,55925
20.76,51071,55930
20.768,51074,55936
20.776,51077,55942
20.784,51079,55950
20.792,51082,55958
20.8,51085,55968
20.808,51089,55979
20.816,51094,55990
20.824,51099,56002
20.832,51104,56013
20.84,51109,56023
20.848,51113,56032
20.856,51116,56038
20.864,51118,56042
20.872,51119,56044
20.88,51118,56043
20.888,51117,56040
20.896,51115,56036
20.904,51114,56032
20.912,51112,56027
20.92,51110,56023
20.928,51108,56020
20.936,51106,56018
20.944,51105,56018
20.952,51105,56019
20.96,51107,56022
20.968,51113,56027
20.976,51120,56033
20.984,51128,56040
20.992,51134,56049
21,51137,56058
21.008,51139,56068
21.016,51139,56079
21.024,51139,56090
21.032,51141,56102
21.04,51145,56113
21.048,51150,56125
21.056,51155,56137
21.064,51160,56149
21.072,51165,56160
21.08,51170,56171
21.088,51176,56182
21.096,51182,56192
21.104,51187,56203
21.112,51189,56213
21.12,51187,56225
21.128,51183,56236
21.136,51180,56248
21.144,51179,56258
21.152,51184,56268
21.16,51192,56276
21.168,51203,56283
21.176,51213,56290
21.184,51222,56298
21.192,51227,56305
21.2,51231,56314
21.208,51233,56322
21.216,51235,56330
21.224,51238,56338
21.232,51242,56346
21.24,51247,56354
21.248,51252,56362
21.256,51256,56370
21.264,51257,56379
21.272,51256,56388
21.28,51253,56397
21.288,51250,56406
21.296,51250,56415
21.304,51254,56423
21.312,51261,56432
21.32,51271,56440
21.328,51280,56449
21.336,51288,56458
21.344,51293,56467
21.352,51296,56477
21.36,51298,56487
21.368,51302,56497
21.376,51306,56506
21.384,51312,56514
21.392,51318,56521
21.4,51322,56530
21.408,51324,56542
21.416,51322,56557
21.424,51318,56573
21.432,51314,56589
21.44,51313,56602
21.448,51317,56611
21.456,51325,56615
21.464,51336,56619
21.472,51347,56623
21.48,51356,56629
21.488,51362,56637
21.496,51365,56644
21.504,51365,56644
21.512,51361,56634
21.52,51352,56609
21.528,51338,56567
21.536,51317,56510
21.544,51292,56441
21.552,51262,56365
21.56,51230,56289
21.568,51197,56218
21.576,51165,56155
21.584,51137,56100
21.592,51113,56052
21.6,51094,56011
21.608,51080,55976
21.616,51070,55948
21.624,51065,55928
21.632,51061,55916
21.64,51060,55911
21.648,51060,55911
21.656,51061,55915
21.664,51063,55920
21.672,51065,55924
21.68,51067,55928
21.688,51069,55931
21.696,51071,55935
21.704,51073,55939
21.712,51075,55945
21.72,51078,55954
21.728,51081,55966
21.736,51084,55978
21.744,51089,55990
21.752,51093,56001
21.76,51098,56010
21.768,51103,56018
21.776,51108,56024
21.784,51112,56031
21.792,51115,56036
21.8,51117,56039
21.808,51118,56041
21.816,51118,56041
21.824,51117,56040
21.832,51115,56038
21.84,51113,56036
21.848,51111,56032
21.856,51109,56025
21.864,51107,56016
21.872,51107,56005
21.88,51106,55997
21.888,51107,55994
21.896,51108,55997
21.904,51110,56007
21.912,51113,56021
21.92,51116,56036
21.928,51119,56049
21.936,51123,56061
21.944,51127,56071
21.952,51132,56080
21.96,51137,56090
21.968,51142,56100
21.976,51147,56113
21.984,51151,56127
21.992,51155,56141
22,51159,56154
22.008,51163,56163
22.016,51170,56168
22.024,51178,56170
22.032,51188,56172
22.04,51198,56178
22.048,51206,56188
22.056,51210,56203
22.064,51211,56221
22.072,51210,56238
22.08,51209,56252
22.088,51209,56263
22.096,51211,56272
22.104,51215,56279
22.112,51220,56287
22.12,51225,56295
22.128,51228,56304
22.136,51230,56313
22.144,51231,56322
22.152,51231,56330
22.16,51234,56338
22.168,51241,56344
22.176,51252,56349
22.184,51266,56354
22.192,51280,56361
22.2,51289,56369
22.208,51292,56379
22.216,51289,56390
22.224,51282,56401
22.232,51276,56411
22.24,51273,56420
22.248,51275,56429
22.256,51279,56438
22.264,51285,56446
22.272,51290,56455
22.28,51293,56465
22.288,51294,56474
22.296,51295,56484
22.304,51298,56493
22.312,51305,56502
22.32,51316,56512
22.328,51329,56521
22.336,51343,56531
22.344,51352,56540
22.352,51356,56550
22.36,51354,56560
22.368,51349,56569
22.376,51344,56578
22.384,51342,56587
22.392,51342,56595
22.4,51346,56604
22.408,51351,56613
22.416,51356,56623
22.424,51361,56633
22.432,51365,56642
22.44,51367,56647
22.448,51366,56644
22.456,51361,56629
22.464,51351,56599
22.472,51337,56554
22.48,51316,56494
22.488,51291,56423
22.496,51260,56344
22.504,51227,56263
22.512,51192,56184
22.52,51159,56112
22.528,51129,56049
22.536,51104,55997
22.544,51084,55956
22.552,51069,55925
22.56,51059,55903
22.568,51051,55889
22.576,51047,55880
22.584,51046,55876
22.592,51047,55874
22.6,51049,55875
22.608,51050,55877
22.616,51048,55880
22.624,51044,55882
22.632,51037,55885
22.64,51031,55887
22.648,51028,55889
22.656,51030,55892
22.664,51037,55896
22.672,51046,55902
22.68,51056,55909
22.688,51064,55918
22.696,51070,55928
22.704,51075,55939
22.712,51078,55950
22.72,51082,55960
22.728,51085,55969
22.736,51089,55976
22.744,51092,55981
22.752,51093,55984
22.76,51094,55985
22.768,51094,55984
22.776,51093,55982
22.784,51091,55979
22.792,51090,55975
22.8,51088,55971
22.808,51086,55968
22.816,51085,55965
22.824,51084,55964
22.832,51084,55965
22.84,51085,55967
22.848,51086,55972
22.856,51088,55978
22.864,51090,55985
22.872,51093,55993
22.88,51098,56002
22.888,51104,56010
22.896,51111,56019
22.904,51116,56030
22.912,51117,56043
22.92,51115,56059
22.928,51111,56076
22.936,51108,56092
22.944,51108,56107
22.952,51113,56118
22.96,51123,56126
22.968,51136,56132
22.976,51149,56138
22.984,51159,56145
22.992,51166,56154
23,51170,56164
23.008,51172,56176
23.016,51175,56186
23.024,51179,56196
23.032,51183,56204
23.04,51188,56211
23.048,51193,56217
23.056,51197,56226
23.064,51199,56237
23.072,51200,56253
23.08,51200,56271
23.088,51200,56289
23.096,51202,56302
23.104,51205,56310
23.112,51211,56312
23.12,51217,56312
23.128,51224,56312
23.136,51229,56315
23.144,51234,56322
23.152,51237,56331
23.16,51241,56342
23.168,51244,56352
23.176,51248,56362
23.184,51252,56370
23.192,51256,56377
23.2,51259,56384
23.208,51263,56393
23.216,51267,56405
23.224,51271,56421
23.232,51275,56440
23.24,51279,56458
23.248,51283,56473
23.256,51287,56483
23.264,51291,56488
23.272,51295,56490
23.28,51299,56493
23.288,51304,56497
23.296,51308,56506
23.304,51312,56516
23.312,51316,56528
23.32,51320,56539
23.328,51325,56549
23.336,51329,56557
23.344,51333,56565
23.352,51337,56574
23.36,51341,56587
23.368,51344,56602
23.376,51348,56620
23.384,51352,56637
23.392,51356,56653
23.4,51360,56663
23.408,51365,56667
23.416,51368,56665
23.424,51368,56655
23.432,51363,56635
23.44,51353,56603
23.448,51336,56556
23.456,51313,56496
23.464,51285,56423
23.472,51253,56343
23.48,51219,56261
23.488,51185,56182
23.496,51154,56110
23.504,51126,56046
23.512,51102,55993
23.52,51084,55950
23.528,51069,55917
23.536,51059,55894
23.544,51053,55878
23.552,51049,55871
23.56,51047,55869
23.568,51047,55872
23.576,51048,55876
23.584,51050,55881
23.592,51051,55886
23.6,51053,55890
23.608,51055,55893
23.616,51057,55896
23.624,51059,55900
23.632,51061,55906
23.64,51064,55915
23.648,51067,55924
23.656,51070,55933
23.664,51074,55940
23.672,51079,55943
23.68,51084,55944
23.688,51088,55945
23.696,51093,55949
23.704,51096,55958
23.712,51099,55971
23.72,51101,55984
23.728,51102,55995
23.736,51102,56000
23.744,51101,56001
23.752,51100,55997
23.76,51098,55992
23.768,51097,55986
23.776,51095,55982
23.784,51093,55980
23.792,51092,55979
23.8,51092,55979
23.808,51092,55982
23.816,51094,55985
23.824,51098,55990
23.832,51102,55997
23.84,51107,56005
23.848,51111,56013
23.856,51115,56023
23.864,51118,56033
23.872,51121,56043
23.88,51124,56054
23.888,51127,56065
23.896,51132,56076
23.904,51137,56087
23.912,51143,56098
23.92,51148,56110
23.928,51153,56122
23.936,51157,56135
23.944,51160,56147
23.952,51163,56158
23.96,51167,56166
23.968,51174,56171
23.976,51183,56174
23.984,51195,56178
23.992,51206,56183
24,51214,56193
24.008,51217,56206
24.016,51216,56222
24.024,51213,56237
24.032,51210,56249
24.04,51210,56260
24.048,51211,56268
24.056,51215,56275
24.064,51219,56282
24.072,51224,56290
24.08,51227,56298
24.088,51229,56306
24.096,51231,56315
24.104,51232,56323
24.112,51235,56331
24.12,51240,56339
24.128,51249,56346
24.136,51259,56354
24.144,51269,56362
24.152,51277,56371
24.16,51280,56380
24.168,51280,56390
24.176,51277,56399
24.184,51275,56409
24.192,51274,56418
24.2,51276,56427
24.208,51280,56437
24.216,51285,56446
24.224,51290,56455
24.232,51294,56465
24.24,51297,56474
24.248,51300,56484
24.256,51302,56493
24.264,51305,56502
24.272,51309,56511
24.28,51315,56520
24.288,51322,56529
24.296,51330,56539
24.304,51337,56548
24.312,51342,56558
24.32,51344,56567
24.328,51345,56576
24.336,51345,56585
24.344,51345,56593
24.352,51347,56602
24.36,51351,56611
24.368,51355,56621
24.376,51360,56630
24.384,51364,56637
24.392,51365,56637
24.4,51362,56626
24.408,51354,56602
24.416,51340,56563
24.424,51320,56510
24.432,51294,56445
24.44,51265,56372
24.448,51234,56296
24.456,51203,56220
24.464,51173,56151
24.472,51146,56089
24.48,51122,56038
24.488,51104,55997
24.496,51090,55967
24.504,51079,55947
24.512,51073,55935
24.52,51069,55929
24.528,51068,55928
24.536,51070,55931
24.544,51075,55936
24.552,51080,55942
24.56,51084,55951
24.568,51084,55960
24.576,51081,55972
24.584,51075,55984
24.592,51070,55996
24.6,51069,56008
24.608,51075,56019
24.616,51086,56030
24.624,51100,56040
24.632,51114,56050
24.64,51125,56061
24.648,51133,56071
24.656,51137,56081
24.664,51139,56089
24.672,51140,56095
24.68,51141,56097
24.688,51142,56098
24.696,51143,56095
24.704,51143,56091
24.712,51141,56085
24.72,51137,56079
24.728,51129,56072
24.736,51120,56066
24.744,51112,56061
24.752,51107,56058
24.76,51106,56057
24.768,51110,56058
24.776,51117,56060
24.784,51124,56064
24.792,51130,56070
24.8,51134,56077
24.808,51138,56086
24.816,51141,56096
24.824,51144,56107
24.832,51149,56117
24.84,51154,56127
24.848,51159,56138
24.856,51164,56149
24.864,51169,56163
24.872,51174,56179
24.88,51179,56196
24.888,51184,56213
24.896,51189,56227
24.904,51194,56238
24.912,51198,56246
24.92,51203,56252
24.928,51207,56257
24.936,51212,56264
24.944,51216,56272
24.952,51220,56282
24.96,51224,56292
24.968,51227,56302
24.976,51231,56311
24.984,51234,56319
24.992,51238,56325
25,51241,56331
25.008,51244,56338
25.016,51247,56348
25.024,51249,56362
25.032,51251,56377
25.04,51253,56392
25.048,51256,56404
25.056,51259,56411
25.064,51262,56414
25.072,51266,56414
25.08,51271,56415
25.088,51275,56418
25.096,51278,56424
25.104,51282,56432
25.112,51285,56441
25.12,51288,56450
25.128,51292,56459
25.136,51295,56468
25.144,51299,56478
25.152,51302,56488
25.16,51306,56497
25.168,51310,56504
25.176,51313,56508
25.184,51317,56511
25.192,51321,56514
25.2,51325,56520
25.208,51329,56529
25.216,51332,56543
25.224,51336,56557
25.232,51339,56572
25.24,51343,56584
25.248,51347,56594
25.256,51350,56602
25.264,51354,56608
25.272,51357,56616
25.28,51361,56625
25.288,51364,56636
25.296,51368,56649
25.304,51372,56659
25.312,51376,56665
25.32,51378,56662
25.328,51379,56649
25.336,51374,56625
25.344,51364,56591
25.352,51348,56546
25.36,51325,56492
25.368,51297,56430
25.376,51265,56359
25.384,51232,56284
25.392,51199,56208
25.4,51167,56134
25.408,51140,56068
25.416,51116,56012
25.424,51097,55968
25.432,51081,55936
25.44,51069,55913
25.448,51060,55899
25.456,51054,55888
25.464,51051,55878
25.472,51051,55867
25.48,51054,55856
25.488,51059,55847
25.496,51064,55842
25.504,51067,55844
25.512,51067,55850
25.52,51065,55860
25.528,51061,55869
25.536,51057,55876
25.544,51055,55881
25.552,51056,55885
25.56,51059,55890
25.568,51063,55896
25.576,51068,55905
25.584,51073,55915
25.592,51076,55926
25.6,51077,55937
25.608,51078,55945
25.616,51080,55950
25.624,51086,55952
25.632,51095,55950
25.64,51107,55947
25.648,51117,55943
25.656,51122,55940
25.664,51119,55937
25.672,51111,55936
25.68,51099,55934
25.688,51087,55933
25.696,51079,55931
25.704,51076,55929
25.712,51076,55929
25.72,51077,55930
25.728,51080,55934
25.736,51082,55939
25.744,51084,55946
25.752,51087,55953
25.76,51090,55962
25.768,51094,55971
25.776,51098,55981
25.784,51102,55991
25.792,51106,56002
25.8,51111,56013
25.808,51116,56024
25.816,51120,56036
25.824,51125,56047
25.832,51130,56058
25.84,51135,56068
25.848,51140,56078
25.856,51144,56088
25.864,51148,56098
25.872,51153,56107
25.88,51157,56117
25.888,51160,56126
25.896,51163,56135
25.904,51166,56144
25.912,51169,56153
25.92,51175,56161
25.928,51182,56169
25.936,51190,56177
25.944,51198,56185
25.952,51204,56193
25.96,51207,56201
25.968,51207,56209
25.976,51206,56216
25.984,51205,56224
25.992,51205,56232
26,51207,56239
26.008,51210,56247
26.016,51213,56255
26.024,51216,56264
26.032,51219,56272
26.04,51223,56280
26.048,51228,56289
26.056,51233,56297
26.064,51237,56306
26.072,51239,56315
26.08,51238,56324
26.088,51235,56334
26.096,51232,56345
26.104,51232,56354
26.112,51236,56364
26.12,51244,56372
26.128,51254,56381
26.136,51264,56390
26.144,51272,56399
26.152,51277,56408
26.16,51280,56417
26.168,51283,56427
26.176,51285,56436
26.184,51289,56446
26.192,51294,56455
26.2,51300,56464
26.208,51306,56474
26.216,51310,56482
26.224,51311,56491
26.232,51307,56499
26.24,51302,56508
26.248,51297,56517
26.256,51296,56527
26.264,51301,56536
26.272,51310,56543
26.28,51320,56544
26.288,51325,56535
26.296,51323,56512
26.304,51311,56473
26.312,51290,56420
26.32,51262,56353
26.328,51231,56276
26.336,51199,56194
26.344,51168,56113
26.352,51139,56035
26.36,51110,55967
26.368,51081,55910
26.376,51052,55865
26.384,51024,55831
26.392,51001,55807
26.4,50986,55789
26.408,50980,55775
26.416,50982,55763
26.424,50989,55754
26.432,50997,55747
26.44,51003,55744
26.448,51006,55742
26.456,51005,55742
26.464,51004,55742
26.472,51003,55742
26.48,51002,55742
26.488,51003,55741
26.496,51005,55739
26.504,51008,55740
26.512,51010,55744
26.52,51011,55753
26.528,51011,55768
26.536,51010,55787
26.544,51009,55805
26.552,51011,55819
26.56,51015,55826
26.568,51020,55826
26.576,51027,55822
26.584,51032,55816
26.592,51035,55810
26.6,51036,55806
26.608,51035,55803
26.616,51033,55799
26.624,51031,55795
26.632,51029,55789
26.64,51027,55781
26.648,51025,55774
26.656,51023,55768
26.664,51022,55766
26.672,51022,55769
26.68,51023,55779
26.688,51026,55793
26.696,51029,55808
26.704,51033,55821
26.712,51037,55830
26.72,51041,55835
26.728,51045,55837
26.736,51050,55840
26.744,51054,55846
26.752,51058,55855
26.76,51063,55866
26.768,51068,55879
26.776,51073,55892
26.784,51078,55905
26.792,51083,55917
26.8,51087,55929
26.808,51092,55939
26.816,51096,55949
26.824,51101,55957
26.832,51104,55964
26.84,51108,55971
26.848,51112,55977
26.856,51115,55984
26.864,51118,55992
26.872,51121,56001
26.88,51124,56009
26.888,51127,56017
26.896,51130,56025
26.904,51133,56033
26.912,51136,56041
26.92,51139,56048
26.928,51142,56056
26.936,51145,56063
26.944,51147,56070
26.952,51150,56077
26.96,51153,56084
26.968,51157,56091
26.976,51160,56097
26.984,51163,56103
26.992,51165,56108
27,51168,56113
27.008,51170,56119
27.016,51172,56125
27.024,51174,56131
27.032,51176,56137
27.04,51178,56143
27.048,51181,56148
27.056,51183,56154
27.064,51186,56159
27.072,51189,56164
27.08,51190,56168
27.088,51192,56172
27.096,51192,56177
27.104,51192,56182
27.112,51192,56186
27.12,51192,56190
27.128,51194,56192
27.136,51197,56194
27.144,51201,56197
27.152,51205,56201
27.16,51208,56207
27.168,51210,56214
27.176,51211,56223
27.184,51211,56232
27.192,51211,56241
27.2,51211,56250
27.208,51213,56258
27.216,51216,56268
27.224,51220,56278
27.232,51223,56285
27.24,51225,56289
27.248,51224,56284
27.256,51218,56267
27.264,51208,56237
27.272,51192,56193
27.28,51171,56136
27.288,51145,56070
27.296,51117,55999
27.304,51087,55927
27.312,51058,55859
27.32,51029,55797
27.328,51003,55742
27.336,50979,55695
27.344,50959,55655
27.352,50942,55623
27.36,50929,55598
27.368,50920,55580
27.376,50913,55568
27.384,50908,55561
27.392,50905,55558
27.4,50904,55557
27.408,50903,55556
27.416,50903,55555
27.424,50904,55554
27.432,50906,55552
27.44,50909,55551
27.448,50913,55553
27.456,50916,55559
27.464,50919,55568
27.472,50921,55580
27.48,50923,55592
27.488,50926,55605
27.496,50930,55616
27.504,50934,55626
27.512,50938,55634
27.52,50942,55640
27.528,50944,55643
27.536,50944,55644
27.544,50942,55642
27.552,50939,55638
27.56,50935,55632
27.568,50932,55624
27.576,50929,55615
27.584,50927,55605
27.592,50927,55597
27.6,50926,55590
27.608,50925,55586
27.616,50923,55585
27.624,50920,55586
27.632,50918,55590
27.64,50917,55596
27.648,50917,55603
27.656,50920,55611
27.664,50924,55619
27.672,50928,55628
27.68,50933,55637
27.688,50937,55646
27.696,50940,55656
27.704,50944,55667
27.712,50948,55677
27.72,50952,55688
27.728,50958,55699
27.736,50964,55710
27.744,50972,55721
27.752,50979,55732
27.76,50985,55743
27.768,50989,55754
27.776,50992,55765
27.784,50994,55775
27.792,50996,55785
27.8,50999,55794
27.808,51002,55803
27.816,51005,55811
27.824,51008,55818
27.832,51011,55825
27.84,51014,55831
27.848,51016,55837
27.856,51018,55843
27.864,51021,55849
27.872,51022,55855
27.88,51023,55861
27.888,51025,55867
27.896,51026,55874
27.904,51028,55881
27.912,51031,55888
27.92,51035,55897
27.928,51040,55905
27.936,51044,55914
27.944,51049,55923
27.952,51053,55933
27.96,51057,55942
27.968,51061,55951
27.976,51065,55960
27.984,51069,55969
27.992,51072,55978
28,51076,55986
28.008,51080,55995
28.016,51084,56004
28.024,51088,56013
28.032,51091,56023
28.04,51094,56032
28.048,51097,56041
28.056,51100,56049
28.064,51104,56058
28.072,51108,56066
28.08,51112,56075
28.088,51116,56083
28.096,51119,56089
28.104,51120,56091
28.112,51118,56084
28.12,51112,56066
28.128,51101,56036
28.136,51085,55993
28.144,51064,55939
28.152,51040,55876
28.16,51013,55808
28.168,50985,55739
28.176,50955,55673
28.184,50927,55613
28.192,50901,55561
28.2,50878,55516
28.208,50860,55480
28.216,50847,55450
28.224,50839,55427
28.232,50834,55408
28.24,50831,55394
28.248,50828,55383
28.256,50825,55375
28.264,50823,55369
28.272,50820,55364
28.28,50818,55359
28.288,50816,55354
28.296,50814,55350
28.304,50813,55346
28.312,50812,55343
28.32,50812,55343
28.328,50813,55345
28.336,50813,55350
28.344,50815,55357
28.352,50817,55366
28.36,50820,55377
28.368,50825,55387
28.376,50830,55396
28.384,50835,55404
28.392,50839,55410
28.4,50842,55414
28.408,50844,55415
28.416,50843,55414
28.424,50841,55411
28.432,50839,55406
28.44,50836,55400
28.448,50834,55393
28.456,50832,55387
28.464,50830,55382
28.472,50828,55380
28.48,50826,55379
28.488,50823,55382
28.496,50821,55385
28.504,50821,55390
28.512,50823,55394
28.52,50827,55399
28.528,50832,55404
28.536,50837,55410
28.544,50842,55418
28.552,50847,55426
28.56,50851,55436
28.568,50854,55446
28.576,50858,55457
28.584,50862,55467
28.592,50867,55477
28.6,50871,55486
28.608,50876,55495
28.616,50880,55504
28.624,50885,55514
28.632,50888,55525
28.64,50891,55537
28.648,50894,55548
28.656,50897,55558
28.664,50900,55566
28.672,50904,55573
28.68,50908,55578
28.688,50912,55584
28.696,50916,55590
28.704,50920,55596
28.712,50922,55603
28.72,50925,55611
28.728,50927,55618
28.736,50930,55625
28.744,50932,55631
28.752,50935,55638
28.76,50939,55644
28.768,50942,55652
28.776,50945,55659
28.784,50948,55668
28.792,50951,55678
28.8,50954,55688
28.808,50957,55697
28.816,50960,55705
28.824,50963,55712
28.832,50966,55718
28.84,50970,55724
28.848,50974,55731
28.856,50977,55739
28.864,50981,55747
28.872,50985,55756
28.88,50988,55764
28.888,50991,55773
28.896,50994,55781
28.904,50998,55790
28.912,51001,55798
28.92,51005,55807
28.928,51009,55815
28.936,51013,55824
28.944,51017,55832
28.952,51020,55840
28.96,51024,55848
28.968,51027,55857
28.976,51031,55866
28.984,51034,55876
28.992,51038,55885
29,51042,55894
29.008,51045,55899
29.016,51046,55898
29.024,51043,55889
29.032,51037,55867
29.04,51024,55832
29.048,51005,55783
29.056,50982,55721
29.064,50953,55650
29.072,50922,55574
29.08,50891,55498
29.088,50860,55426
29.096,50832,55360
29.104,50807,55303
29.112,50786,55255
29.12,50768,55215
29.128,50754,55183
29.136,50742,55157
29.144,50733,55135
29.152,50725,55117
29.16,50719,55102
29.168,50713,55088
29.176,50708,55075
29.184,50703,55063
29.192,50698,55052
29.2,50693,55041
29.208,50688,55031
29.216,50684,55020
29.224,50680,55010
29.232,50677,55000
29.24,50675,54991
29.248,50674,54986
29.256,50674,54985
29.264,50675,54988
29.272,50677,54996
29.28,50680,55007
29.288,50683,55018
29.296,50686,55028
29.304,50690,55037
29.312,50692,55043
29.32,50695,55046
29.328,50696,55048
29.336,50696,55047
29.344,50695,55045
29.352,50693,55042
29.36,50691,55038
29.368,50689,55034
29.376,50686,55029
29.384,50685,55023
29.392,50683,55019
29.4,50683,55016
29.408,50683,55016
29.416,50684,55018
29.424,50686,55024
29.432,50688,55031
29.44,50690,55039
29.448,50693,55047
29.456,50696,55056
29.464,50700,55064
29.472,50704,55072
29.48,50708,55082
29.488,50713,55093
29.496,50718,55104
29.504,50722,55116
29.512,50726,55127
29.52,50731,55136
29.528,50735,55144
29.536,50740,55150
29.544,50745,55157
29.552,50751,55165
29.56,50755,55174
29.568,50759,55185
29.576,50762,55197
29.584,50765,55209
29.592,50767,55219
29.6,50770,55228
29.608,50774,55236
29.616,50777,55243
29.624,50781,55250
29.632,50784,55258
29.64,50788,55267
29.648,50791,55275
29.656,50793,55284
29.664,50796,55293
29.672,50799,55300
29.68,50804,55307
29.688,50809,55314
29.696,50816,55321
29.704,50822,55328
29.712,50827,55337
29.72,50831,55348
29.728,50833,55359
29.736,50834,55369
29.744,50835,55380
29.752,50838,55390
29.76,50842,55400
29.768,50846,55410
29.776,50851,55421
29.784,50856,55431
29.792,50861,55442
29.8,50865,55453
29.808,50868,55464
29.816,50872,55475
29.824,50876,55485
29.832,50882,55495
29.84,50889,55506
29.848,50897,55516
29.856,50905,55526
29.864,50911,55536
29.872,50915,55547
29.88,50918,55557
29.888,50919,55568
29.896,50921,55578
29.904,50923,55588
29.912,50926,55598
29.92,50930,55609
29.928,50935,55618
29.936,50940,55628
29.944,50944,55637
29.952,50948,55646
29.96,50951,55655
29.968,50955,55665
29.976,50959,55675
29.984,50963,55684
29.992,50966,55691
30,50968,55691
30.008,50966,55683
30.016,50960,55663
30.024,50948,55629
30.032,50931,55581
30.04,50907,55520
30.048,50879,55450
30.056,50849,55375
30.064,50817,55299
30.072,50787,55227
30.08,50759,55162
30.088,50734,55106
30.096,50713,55060
30.104,50695,55022
30.112,50681,54993
30.12,50671,54970
30.128,50664,54953
30.136,50660,54939
30.144,50658,54929
30.152,50658,54920
30.16,50657,54913
30.168,50654,54906
30.176,50650,54900
30.184,50645,54893
30.192,50640,54885
30.2,50636,54878
30.208,50633,54872
30.216,50631,54867
30.224,50630,54865
30.232,50631,54866
30.24,50632,54870
30.248,50634,54877
30.256,50638,54886
30.264,50642,54896
30.272,50646,54906
30.28,50650,54915
30.288,50654,54923
30.296,50657,54928
30.304,50659,54931
30.312,50660,54931
30.32,50659,54928
30.328,50658,54924
30.336,50656,54919
30.344,50653,54914
30.352,50650,54909
30.36,50648,54905
30.368,50647,54903
30.376,50647,54902
30.384,50647,54903
30.392,50648,54905
30.4,50650,54909
30.408,50653,54915
30.416,50657,54922
30.424,50660,54930
30.432,50662,54938
30.44,50664,54948
30.448,50665,54958
30.456,50667,54969
30.464,50671,54980
30.472,50676,54991
30.48,50682,55003
30.488,50690,55014
30.496,50697,55025
30.504,50704,55036
30.512,50709,55047
30.52,50713,55058
30.528,50717,55069
30.536,50722,55080
30.544,50726,55090
30.552,50732,55101
30.56,50737,55111
30.568,50742,55121
30.576,50745,55131
30.584,50746,55141
30.592,50747,55150
30.6,50747,55160
30.608,50749,55169
30.616,50753,55179
30.624,50759,55188
30.632,50766,55197
30.64,50773,55206
30.648,50779,55215
30.656,50784,55224
30.664,50788,55234
30.672,50791,55243
30.68,50795,55252
30.688,50799,55262
30.696,50804,55272
30.704,50809,55281
30.712,50814,55291
30.72,50818,55301
30.728,50821,55312
30.736,50824,55325
30.744,50826,55338
30.752,50828,55351
30.76,50831,55363
30.768,50836,55375
30.776,50843,55385
30.784,50850,55395
30.792,50858,55406
30.8,50864,55416
30.808,50870,55427
30.816,50875,55439
30.824,50880,55451
30.832,50885,55463
30.84,50889,55474
30.848,50894,55485
30.856,50899,55495
30.864,50904,55506
30.872,50908,55517
30.88,50913,55529
30.888,50917,55541
30.896,50922,55555
30.904,50926,55569
30.912,50930,55582
30.92,50934,55592
30.928,50939,55600
30.936,50942,55604
30.944,50944,55601
30.952,50942,55590
30.96,50935,55568
30.968,50922,55533
30.976,50903,55484
30.984,50880,55423
30.992,50852,55354
31,50821,55280
31.008,50790,55206
31.016,50760,55136
31.024,50732,55073
31.032,50708,55020
31.04,50688,54975
31.048,50672,54940
31.056,50660,54913
31.064,50651,54892
31.072,50644,54877
31.08,50639,54865
31.088,50635,54857
31.096,50632,54850
31.104,50629,54844
31.112,50627,54839
31.12,50626,54833
31.128,50624,54829
31.136,50622,54824
31.144,50620,54820
31.152,50619,54817
31.16,50618,54816
31.168,50618,54818
31.176,50619,54822
31.184,50622,54828
31.192,50626,54837
31.2,50631,54847
31.208,50636,54859
31.216,50641,54871
31.224,50646,54882
31.232,50651,54892
31.24,50654,54900
31.248,50657,54906
31.256,50658,54908
31.264,50658,54908
31.272,50658,54906
31.28,50657,54903
31.288,50655,54900
31.296,50654,54897
31.304,50653,54895
31.312,50651,54894
31.32,50651,54894
31.328,50651,54895
31.336,50653,54897
31.344,50656,54899
31.352,50660,54903
31.36,50665,54910
31.368,50670,54918
31.376,50674,54930
31.384,50678,54943
31.392,50681,54956
31.4,50684,54969
31.408,50688,54982
31.416,50693,54995
31.424,50699,55007
31.432,50704,55020
31.44,50710,55033
31.448,50716,55046
31.456,50722,55059
31.464,50727,55071
31.472,50732,55084
31.48,50738,55096
31.488,50744,55108
31.496,50750,55119
31.504,50756,55130
31.512,50761,55141
31.52,50766,55152
31.528,50770,55164
31.536,50773,55175
31.544,50777,55186
31.552,50780,55196
31.56,50784,55207
31.568,50789,55217
31.576,50793,55227
31.584,50798,55236
31.592,50802,55246
31.6,50805,55256
31.608,50809,55266
31.616,50812,55276
31.624,50816,55285
31.632,50821,55295
31.64,50827,55304
31.648,50834,55314
31.656,50841,55324
31.664,50848,55335
31.672,50852,55347
31.68,50855,55358
31.688,50858,55371
31.696,50860,55383
31.704,50863,55395
31.712,50867,55407
31.72,50872,55419
31.728,50877,55431
31.736,50883,55444
31.744,50889,55456
31.752,50894,55469
31.76,50900,55481
31.768,50905,55493
31.776,50910,55505
31.784,50915,55517
31.792,50919,55529
31.8,50922,55541
31.808,50926,55553
31.816,50930,55564
31.824,50935,55576
31.832,50941,55588
31.84,50947,55599
31.848,50953,55611
31.856,50958,55622
31.864,50963,55633
31.872,50967,55643
31.88,50971,55654
31.888,50975,55665
31.896,50980,55677
31.904,50985,55688
31.912,50990,55697
31.92,50993,55702
31.928,50992,55698
31.936,50987,55683
31.944,50977,55653
31.952,50960,55608
31.96,50938,55549
31.968,50910,55478
31.976,50879,55400
31.984,50845,55318
31.992,50811,55238
32,50779,55164
32.008,50750,55099
32.016,50725,55044
32.024,50704,54999
32.032,50687,54963
32.04,50674,54936
32.048,50665,54915
32.056,50659,54899
32.064,50654,54887
32.072,50650,54878
32.08,50647,54872
32.088,50642,54867
32.096,50637,54863
32.104,50632,54859
32.112,50629,54855
32.12,50627,54850
32.128,50627,54844
32.136,50628,54839
32.144,50629,54836
32.152,50631,54835
32.16,50632,54837
32.168,50634,54843
32.176,50636,54851
32.184,50640,54862
32.192,50645,54874
32.2,50651,54886
32.208,50657,54897
32.216,50663,54908
32.224,50667,54918
32.232,50671,54926
32.24,50673,54933
32.248,50673,54939
32.256,50673,54942
32.264,50673,54943
32.272,50672,54942
32.28,50672,54938
32.288,50672,54934
32.296,50672,54931
32.304,50672,54929
32.312,50673,54931
32.32,50674,54934
32.328,50676,54939
32.336,50678,54946
32.344,50681,54954
32.352,50685,54962
32.36,50689,54972
32.368,50694,54982
32.376,50699,54994
32.384,50704,55007
32.392,50710,55021
32.4,50716,55036
32.408,50721,55051
32.416,50727,55066
32.424,50733,55080
32.432,50739,55092
32.44,50745,55104
32.448,50751,55116
32.456,50757,55129
32.464,50762,55142
32.472,50768,55155
32.48,50773,55168
32.488,50778,55180
32.496,50783,55193
32.504,50789,55205
32.512,50794,55216
32.52,50799,55228
32.528,50804,55240
32.536,50809,55251
32.544,50813,55263
32.552,50818,55274
32.56,50822,55285
32.568,50826,55296
32.576,50831,55307
32.584,50835,55317
32.592,50840,55328
32.6,50845,55339
32.608,50850,55350
32.616,50855,55361
32.624,50860,55371
32.632,50864,55382
32.64,50869,55394
32.648,50873,55405
32.656,50878,55418
32.664,50882,55430
32.672,50887,55442
32.68,50892,55453
32.688,50897,55462
32.696,50903,55472
32.704,50910,55481
32.712,50916,55492
32.72,50922,55505
32.728,50927,55520
32.736,50932,55535
32.744,50936,55550
32.752,50940,55564
32.76,50945,55578
32.768,50950,55590
32.776,50955,55602
32.784,50960,55614
32.792,50965,55627
32.8,50970,55639
32.808,50975,55652
32.816,50980,55665
32.824,50985,55677
32.832,50990,55688
32.84,50995,55699
32.848,51000,55710
32.856,51005,55721
32.864,51010,55733
32.872,51015,55744
32.88,51019,55753
32.888,51021,55757
32.896,51019,55751
32.904,51013,55731
32.912,51000,55697
32.92,50982,55647
32.928,50958,55583
32.936,50929,55510
32.944,50896,55431
32.952,50863,55351
32.96,50829,55274
32.968,50798,55205
32.976,50771,55145
32.984,50749,55096
32.992,50734,55057
33,50723,55028
33.008,50715,55007
33.016,50710,54994
33.024,50706,54985
33.032,50702,54980
33.04,50699,54978
33.048,50696,54978
33.056,50695,54979
33.064,50696,54980
33.072,50697,54982
33.08,50698,54984
33.088,50699,54985
33.096,50700,54987
33.104,50701,54991
33.112,50702,54996
33.12,50705,55003
33.128,50709,55012
33.136,50713,55023
33.144,50719,55036
33.152,50724,55049
33.16,50730,55062
33.168,50735,55073
33.176,50740,55083
33.184,50744,55091
33.192,50746,55096
33.2,50748,55099
33.208,50748,55099
33.216,50748,55098
33.224,50746,55095
33.232,50745,55092
33.24,50743,55089
33.248,50742,55086
33.256,50741,55084
33.264,50742,55084
33.272,50743,55086
33.28,50744,55089
33.288,50745,55095
33.296,50746,55102
33.304,50746,55111
33.312,50747,55121
33.32,50750,55131
33.328,50755,55143
33.336,50762,55155
33.344,50771,55168
33.352,50779,55181
33.36,50787,55195
33.368,50793,55208
33.376,50799,55222
33.384,50805,55236
33.392,50810,55250
33.4,50816,55264
33.408,50823,55277
33.416,50830,55290
33.424,50836,55303
33.432,50840,55317
33.44,50843,55330
33.448,50845,55344
33.456,50847,55357
33.464,50851,55370
33.472,50856,55382
33.48,50862,55393
33.488,50870,55403
33.496,50878,55414
33.504,50884,55425
33.512,50890,55436
33.52,50894,55447
33.528,50898,55458
33.536,50902,55469
33.544,50907,55480
33.552,50911,55490
33.56,50916,55499
33.568,50921,55509
33.576,50925,55519
33.584,50929,55531
33.592,50933,55543
33.6,50936,55557
33.608,50939,55571
33.616,50943,55584
33.624,50947,55595
33.632,50953,55604
33.64,50959,55613
33.648,50965,55621
33.656,50970,55631
33.664,50975,55641
33.672,50980,55652
33.68,50985,55664
33.688,50989,55676
33.696,50994,55688
33.704,50999,55699
33.712,51003,55710
33.72,51008,55721
33.728,51013,55732
33.736,51017,55744
33.744,51022,55757
33.752,51026,55771
33.76,51032,55786
33.768,51037,55799
33.776,51041,55808
33.784,51044,55810
33.792,51043,55802
33.8,51037,55781
33.808,51025,55747
33.816,51007,55698
33.824,50983,55637
33.832,50955,55566
33.84,50923,55488
33.848,50890,55409
33.856,50857,55333
33.864,50827,55264
33.872,50800,55203
33.88,50777,55153
33.888,50758,55112
33.896,50744,55081
33.904,50734,55059
33.912,50727,55045
33.92,50723,55036
33.928,50721,55032
33.936,50720,55030
33.944,50720,55031
33.952,50720,55032
33.96,50721,55034
33.968,50722,55036
33.976,50723,55038
33.984,50724,55040
33.992,50725,55044
34,50728,55049
34.008,50730,55056
34.016,50734,55065
34.024,50738,55076
34.032,50743,55088
34.04,50748,55100
34.048,50754,55111
34.056,50760,55122
34.064,50765,55133
34.072,50769,55141
34.08,50772,55148
34.088,50774,55153
34.096,50774,55155
34.104,50774,55154
34.112,50772,55152
34.12,50771,55148
34.128,50769,55143
34.136,50767,55139
34.144,50765,55136
34.152,50764,55134
34.16,50764,55134
34.168,50764,55136
34.176,50764,55140
34.184,50766,55144
34.192,50770,55149
34.2,50775,55155
34.208,50781,55162
34.216,50787,55171
34.224,50793,55183
34.232,50798,55196
34.24,50802,55210
34.248,50806,55225
34.256,50810,55239
34.264,50814,55253
34.272,50820,55266
34.28,50826,55279
34.288,50831,55292
34.296,50837,55305
34.304,50842,55318
34.312,50847,55331
34.32,50852,55344
34.328,50857,55356
34.336,50863,55367
34.344,50869,55379
34.352,50875,55390
34.36,50881,55401
34.368,50887,55411
34.376,50891,55421
34.384,50894,55431
34.392,50897,55441
34.4,50899,55451
34.408,50902,55461
34.416,50905,55471
34.424,50909,55481
34.432,50914,55490
34.44,50918,55500
34.448,50922,55509
34.456,50926,55518
34.464,50929,55528
34.472,50933,55537
34.48,50936,55546
34.488,50941,55555
34.496,50947,55565
34.504,50953,55574
34.512,50960,55583
34.52,50966,55594
34.528,50970,55604
34.536,50973,55615
34.544,50975,55627
34.552,50977,55638
34.56,50980,55648
34.568,50983,55659
34.576,50988,55669
34.584,50992,55680
34.592,50997,55691
34.6,51002,55702
34.608,51006,55713
34.616,51011,55724
34.624,51016,55735
34.632,51020,55745
34.64,51024,55754
34.648,51027,55765
34.656,51031,55775
34.664,51035,55786
34.672,51039,55795
34.68,51041,55799
34.688,51041,55795
34.696,51036,55779
34.704,51026,55747
34.712,51009,55700
34.72,50985,55638
34.728,50956,55564
34.736,50922,55483
34.744,50887,55398
34.752,50851,55315
34.76,50818,55238
34.768,50787,55171
34.776,50761,55113
34.784,50740,55067
34.792,50723,55030
34.8,50710,55002
34.808,50700,54982
34.816,50693,54966
34.824,50688,54955
34.832,50684,54946
34.84,50681,54940
34.848,50679,54934
34.856,50677,54929
34.864,50676,54923
34.872,50674,54918
34.88,50671,54913
34.888,50669,54908
34.896,50667,54904
34.904,50667,54903
34.912,50667,54903
34.92,50669,54906
34.928,50671,54912
34.936,50674,54921
34.944,50676,54932
34.952,50677,54944
34.96,50679,54957
34.968,50682,54968
34.976,50687,54978
34.984,50693,54985
34.992,50699,54989
35,50703,54992
35.008,50706,54992
35.016,50706,54991
35.024,50705,54988
35.032,50703,54986
35.04,50701,54983
35.048,50699,54980
35.056,50699,54978
35.064,50699,54977
35.072,50700,54977
35.08,50701,54979
35.088,50702,54985
35.096,50703,54993
35.104,50705,55003
35.112,50707,55014
35.12,50710,55025
35.128,50714,55035
35.136,50720,55044
35.144,50726,55053
35.152,50732,55063
35.16,50739,55073
35.168,50744,55085
35.176,50750,55098
35.184,50755,55111
35.192,50760,55123
35.2,50765,55135
35.208,50770,55147
35.216,50775,55158
35.224,50780,55169
35.232,50785,55181
35.24,50790,55193
35.248,50795,55206
35.256,50800,55220
35.264,50804,55233
35.272,50809,55245
35.28,50813,55255
35.288,50817,55263
35.296,50820,55270
35.304,50824,55278
35.312,50828,55286
35.32,50833,55296
35.328,50837,55306
35.336,50841,55316
35.344,50845,55326
35.352,50849,55336
35.36,50853,55345
35.368,50858,55354
35.376,50862,55364
35.384,50866,55375
35.392,50870,55386
35.4,50874,55398
35.408,50879,55411
35.416,50883,55422
35.424,50888,55433
35.432,50892,55443
35.44,50897,55453
35.448,50902,55463
35.456,50906,55473
35.464,50911,55484
35.472,50916,55495
35.48,50921,55507
35.488,50926,55518
35.496,50931,55530
35.504,50935,55541
35.512,50940,55553
35.52,50944,55565
35.528,50948,55576
35.536,50953,55587
35.544,50958,55596
35.552,50963,55605
35.56,50968,55613
35.568,50973,55623
35.576,50978,55633
35.584,50983,55645
35.592,50987,55657
35.6,50991,55671
35.608,50995,55684
35.616,50999,55695
35.624,51002,55704
35.632,51004,55706
35.64,51003,55700
35.648,50996,55680
35.656,50984,55646
35.664,50965,55595
35.672,50939,55530
35.68,50908,55453
35.688,50874,55368
35.696,50838,55281
35.704,50802,55197
35.712,50768,55120
35.72,50739,55054
35.728,50713,55000
35.736,50693,54958
35.744,50678,54926
35.752,50666,54902
35.76,50658,54885
35.768,50653,54872
35.776,50649,54863
35.784,50646,54857
35.792,50644,54852
35.8,50642,54848
35.808,50640,54845
35.816,50638,54841
35.824,50637,54838
35.832,50636,54834
35.84,50636,54832
35.848,50637,54830
35.856,50639,54831
35.864,50641,54834
35.872,50644,54839
35.88,50647,54848
35.888,50650,54858
35.896,50653,54869
35.904,50657,54881
35.912,50661,54893
35.92,50665,54904
35.928,50670,54913
35.936,50673,54919
35.944,50676,54924
35.952,50677,54926
35.96,50677,54926
35.968,50676,54925
35.976,50674,54923
35.984,50673,54920
35.992,50673,54917
36,50673,54915
36.008,50675,54914
36.016,50677,54914
36.024,50679,54916
36.032,50680,54920
36.04,50681,54926
36.048,50682,54933
36.056,50683,54942
36.064,50686,54951
36.072,50690,54961
36.08,50694,54972
36.088,50699,54984
36.096,50705,54996
36.104,50710,55008
36.112,50715,55021
36.12,50721,55034
36.128,50727,55046
36.136,50733,55059
36.144,50737,55072
36.152,50741,55084
36.16,50744,55097
36.168,50747,55109
36.176,50751,55121
36.184,50756,55132
36.192,50762,55144
36.2,50769,55155
36.208,50776,55166
36.216,50782,55177
36.224,50786,55188
36.232,50791,55198
36.24,50794,55208
36.248,50798,55218
36.256,50802,55227
36.264,50807,55237
36.272,50812,55246
36.28,50816,55255
36.288,50820,55264
36.296,50821,55274
36.304,50822,55283
36.312,50823,55293
36.32,50825,55302
36.328,50829,55312
36.336,50834,55322
36.344,50841,55332
36.352,50848,55342
36.36,50854,55352
36.368,50859,55362
36.376,50864,55372
36.384,50868,55383
36.392,50872,55394
36.4,50876,55405
36.408,50881,55416
36.416,50887,55427
36.424,50892,55438
36.432,50897,55449
36.44,50901,55461
36.448,50904,55474
36.456,50906,55488
36.464,50908,55501
36.472,50912,55514
36.48,50917,55526
36.488,50923,55536
36.496,50930,55546
36.504,50937,55555
36.512,50943,55565
36.52,50949,55575
36.528,50953,55586
36.536,50957,55597
36.544,50961,55608
36.552,50966,55620
36.56,50971,55631
36.568,50975,55638
36.576,50977,55640
36.584,50976,55634
36.592,50970,55616
36.6,50958,55585
36.608,50939,55539
36.616,50914,55480
36.624,50885,55409
36.632,50852,55331
36.64,50819,55250
36.648,50786,55172
36.656,50755,55101
36.664,50729,55041
36.672,50707,54994
36.68,50689,54958
36.688,50677,54933
36.696,50668,54916
36.704,50663,54906
36.712,50661,54901
36.72,50660,54899
36.728,50660,54900
36.736,50661,54902
36.744,50663,54905
36.752,50665,54908
36.76,50667,54911
36.768,50669,54915
36.776,50672,54921
36.784,50675,54928
36.792,50678,54938
36.8,50682,54949
36.808,50687,54962
36.816,50693,54975
36.824,50699,54990
36.832,50705,55004
36.84,50711,55018
36.848,50717,55030
36.856,50722,55041
36.864,50726,55049
36.872,50728,55054
36.88,50729,55056
36.888,50729,55054
36.896,50728,55049
36.904,50726,55042
36.912,50724,55035
36.92,50722,55029
36.928,50721,55026
36.936,50719,55025
36.944,50718,55027
36.952,50718,55030
36.96,50719,55035
36.968,50721,55041
36.976,50723,55047
36.984,50727,55055
36.992,50731,55064
37,50736,55075
37.008,50741,55087
37.016,50746,55101
37.024,50751,55115
37.032,50757,55129
37.04,50763,55142
37.048,50770,55155
37.056,50778,55168
37.064,50786,55180
37.072,50795,55193
37.08,50802,55207
37.088,50808,55222
37.096,50812,55238
37.104,50815,55253
37.112,50819,55266
37.12,50823,55279
37.128,50828,55292
37.136,50833,55304
37.144,50839,55315
37.152,50844,55327
37.16,50849,55339
37.168,50853,55350
37.176,50857,55361
37.184,50861,55371
37.192,50865,55382
37.2,50871,55392
37.208,50877,55402
37.216,50883,55412
37.224,50889,55422
37.232,50893,55432
37.24,50896,55442
37.248,50899,55452
37.256,50901,55462
37.264,50905,55472
37.272,50908,55483
37.28,50913,55493
37.288,50918,55504
37.296,50922,55515
37.304,50927,55527
37.312,50931,55538
37.32,50935,55549
37.328,50939,55561
37.336,50944,55572
37.344,50949,55584
37.352,50956,55595
37.36,50963,55607
37.368,50970,55619
37.376,50977,55631
37.384,50981,55643
37.392,50985,55655
37.4,50988,55667
37.408,50991,55679
37.416,50994,55691
37.424,50998,55703
37.432,51003,55714
37.44,51008,55726
37.448,51014,55738
37.456,51018,55749
37.464,51023,55761
37.472,51028,55771
37.48,51032,55782
37.488,51036,55792
37.496,51040,55803
37.504,51043,55814
37.512,51046,55826
37.52,51049,55837
37.528,51053,55846
37.536,51055,55849
37.544,51055,55843
37.552,51051,55825
37.56,51041,55790
37.568,51023,55740
37.576,50998,55675
37.584,50966,55597
37.592,50931,55512
37.6,50894,55424
37.608,50857,55338
37.616,50822,55259
37.624,50791,55190
37.632,50764,55131
37.64,50743,55085
37.648,50726,55049
37.656,50713,55024
37.664,50705,55006
37.672,50699,54994
37.68,50695,54986
37.688,50693,54982
37.696,50692,54979
37.704,50691,54977
37.712,50691,54976
37.72,50691,54975
37.728,50691,54974
37.736,50690,54973
37.744,50689,54972
37.752,50689,54972
37.76,50689,54974
37.768,50691,54977
37.776,50694,54982
37.784,50698,54990
37.792,50701,55001
37.8,50704,55014
37.808,50707,55028
37.816,50709,55042
37.824,50713,55054
37.832,50718,55064
37.84,50724,55072
37.848,50730,55076
37.856,50734,55079
37.864,50737,55080
37.872,50738,55079
37.88,50737,55078
37.888,50736,55076
37.896,50734,55074
37.904,50733,55072
37.912,50732,55071
37.92,50732,55070
37.928,50733,55071
37.936,50734,55075
37.944,50736,55081
37.952,50738,55089
37.96,50741,55100
37.968,50744,55113
37.976,50748,55125
37.984,50753,55136
37.992,50758,55147
38,50764,55157
38.008,50771,55168
38.016,50777,55180
38.024,50783,55193
38.032,50789,55206
38.04,50795,55220
38.048,50801,55234
38.056,50806,55248
38.064,50812,55261
38.072,50818,55273
38.08,50824,55286
38.088,50829,55298
38.096,50835,55312
38.104,50840,55325
38.112,50845,55340
38.12,50850,55353
38.128,50854,55366
38.136,50859,55377
38.144,50864,55387
38.152,50869,55396
38.16,50873,55405
38.168,50878,55415
38.176,50883,55425
38.184,50887,55436
38.192,50892,55447
38.2,50896,55458
38.208,50900,55468
38.216,50904,55479
38.224,50908,55489
38.232,50913,55499
38.24,50918,55510
38.248,50922,55521
38.256,50927,55533
38.264,50931,55545
38.272,50936,55556
38.28,50940,55568
38.288,50945,55579
38.296,50950,55590
38.304,50955,55601
38.312,50960,55612
38.32,50965,55624
38.328,50970,55636
38.336,50975,55648
38.344,50980,55660
38.352,50985,55672
38.36,50990,55685
38.368,50995,55698
38.376,50999,55711
38.384,51004,55724
38.392,51009,55735
38.4,51015,55745
38.408,51020,55754
38.416,51026,55764
38.424,51032,55774
38.432,51038,55787
38.44,51043,55801
38.448,51047,55815
38.456,51051,55830
38.464,51055,55843
38.472,51059,55855
38.48,51063,55866
38.488,51068,55877
38.496,51073,55889
38.504,51078,55901
38.512,51082,55911
38.52,51086,55917
38.528,51086,55914
38.536,51081,55898
38.544,51070,55866
38.552,51052,55816
38.56,51028,55751
38.568,50997,55672
38.576,50962,55586
38.584,50925,55497
38.592,50887,55411
38.6,50851,55330
38.608,50819,55259
38.616,50791,55199
38.624,50768,55150
38.632,50750,55112
38.64,50737,55085
38.648,50728,55066
38.656,50721,55054
38.664,50717,55046
38.672,50715,55043
38.68,50713,55041
38.688,50714,55041
38.696,50715,55042
38.704,50717,55042
38.712,50720,55043
38.72,50723,55044
38.728,50724,55044
38.736,50725,55046
38.744,50725,55048
38.752,50724,55053
38.76,50725,55060
38.768,50727,55068
38.776,50731,55079
38.784,50736,55091
38.792,50742,55103
38.8,50747,55115
38.808,50753,55127
38.816,50757,55137
38.824,50760,55145
38.832,50763,55151
38.84,50764,55154
38.848,50766,55155
38.856,50767,55154
38.864,50768,55152
38.872,50768,55150
38.88,50767,55147
38.888,50766,55145
38.896,50764,55144
38.904,50762,55144
38.912,50761,55146
38.92,50762,55149
38.928,50763,55153
38.936,50766,55160
38.944,50769,55168
38.952,50773,55177
38.96,50777,55187
38.968,50782,55199
38.976,50788,55211
38.984,50794,55224
38.992,50800,55237
39,50805,55250
39.008,50808,55263
39.016,50811,55276
39.024,50814,55290
39.032,50819,55303
39.04,50825,55316
39.048,50832,55329
39.056,50840,55342
39.064,50848,55354
39.072,50855,55366
39.08,50860,55378
39.088,50865,55390
39.096,50869,55402
39.104,50874,55414
39.112,50879,55425
39.12,50885,55435
39.128,50890,55445
39.136,50895,55455
39.144,50898,55466
39.152,50900,55476
39.16,50900,55487
39.168,50901,55497
39.176,50903,55507
39.184,50907,55516
39.192,50913,55525
39.2,50920,55534
39.208,50927,55543
39.216,50933,55553
39.224,50938,55562
39.232,50942,55573
39.24,50946,55583
39.248,50950,55594
39.256,50954,55604
39.264,50959,55615
39.272,50964,55625
39.28,50969,55635
39.288,50973,55646
39.296,50977,55658
39.304,50981,55671
39.312,50984,55685
39.32,50988,55699
39.328,50991,55712
39.336,50996,55723
39.344,51002,55733
39.352,51008,55742
39.36,51014,55750
39.368,51019,55760
39.376,51024,55771
39.384,51029,55783
39.392,51034,55795
39.4,51038,55807
39.408,51043,55818
39.416,51047,55828
39.424,51052,55838
39.432,51056,55848
39.44,51060,55858
39.448,51065,55871
39.456,51070,55884
39.464,51074,55895
39.472,51076,55901
39.48,51075,55897
39.488,51070,55879
39.496,51058,55845
39.504,51040,55794
39.512,51015,55729
39.52,50986,55654
39.528,50953,55574
39.536,50918,55492
39.544,50883,55413
39.552,50851,55342
39.56,50823,55280
39.568,50800,55230
39.576,50781,55191
39.584,50767,55163
39.592,50758,55143
39.6,50752,55131
39.608,50749,55124
39.616,50748,55122
39.624,50749,55123
39.632,50751,55128
39.64,50754,55134
39.648,50757,55142
39.656,50760,55150
39.664,50763,55158
39.672,50766,55166
39.68,50770,55174
39.688,50774,55183
39.696,50778,55194
39.704,50784,55207
39.712,50789,55221
39.72,50796,55235
39.728,50802,55250
39.736,50808,55263
39.744,50813,55274
39.752,50818,55281
39.76,50821,55286
39.768,50824,55287
39.776,50825,55287
39.784,50825,55285
39.792,50823,55283
39.8,50820,55280
39.808,50817,55276
39.816,50814,55272
39.824,50811,55268
39.832,50809,55264
39.84,50808,55263
39.848,50809,55263
39.856,50809,55265
39.864,50811,55270
39.872,50813,55276
39.88,50815,55284
39.888,50818,55293
39.896,50822,55302
39.904,50828,55311
39.912,50834,55321
39.92,50842,55331
39.928,50850,55343
39.936,50857,55357
39.944,50862,55372
39.952,50867,55388
39.96,50871,55403
39.968,50875,55418
39.976,50880,55431
39.984,50885,55444
39.992,50890,55457
40,50896,55469
40.008,50902,55481
40.016,50907,55494
40.024,50912,55506
40.032,50916,55518
40.04,50921,55529
40.048,50926,55540
40.056,50931,55550
40.064,50937,55560
40.072,50943,55570
40.08,50948,55579
40.088,50951,55589
40.096,50955,55599
40.104,50957,55609
40.112,50960,55618
40.12,50963,55628
40.128,50967,55637
40.136,50971,55646
40.144,50975,55655
40.152,50979,55664
40.16,50983,55674
40.168,50986,55684
40.176,50990,55694
40.184,50993,55703
40.192,50997,55713
40.2,51002,55722
40.208,51008,55731
40.216,51015,55740
40.224,51022,55749
40.232,51028,55760
40.24,51032,55771
40.248,51035,55782
40.256,51037,55794
40.264,51038,55805
40.272,51041,55815
40.28,51045,55826
40.288,51049,55836
40.296,51054,55847
40.304,51059,55857
40.312,51063,55868
40.32,51067,55878
40.328,51071,55889
40.336,51075,55899
40.344,51079,55909
40.352,51083,55919
40.36,51087,55929
40.368,51092,55939
40.376,51097,55950
40.384,51101,55960
40.392,51105,55969
40.4,51107,55972
40.408,51106,55966
40.416,51100,55948
40.424,51088,55915
40.432,51069,55866
40.44,51044,55802
40.448,51014,55726
40.456,50979,55642
40.464,50943,55555
40.472,50906,55470
40.48,50871,55392
40.488,50840,55323
40.496,50813,55265
40.504,50792,55218
40.512,50775,55182
40.52,50762,55155
40.528,50753,55137
40.536,50747,55124
40.544,50743,55115
40.552,50740,55110
40.56,50738,55106
40.568,50738,55104
40.576,50737,55102
40.584,50736,55100
40.592,50736,55099
40.6,50735,55097
40.608,50734,55096
40.616,50734,55096
40.624,50735,55097
40.632,50737,55100
40.64,50739,55106
40.648,50741,55114
40.656,50743,55124
40.664,50745,55136
40.672,50747,55148
40.68,50750,55160
40.688,50755,55170
40.696,50761,55178
40.704,50767,55183
40.712,50772,55186
40.72,50775,55187
40.728,50775,55186
40.736,50774,55183
40.744,50772,55180
40.752,50769,55176
40.76,50767,55172
40.768,50766,55168
40.776,50765,55165
40.784,50765,55164
40.792,50765,55165
40.8,50765,55169
40.808,50766,55175
40.816,50767,55184
40.824,50769,55194
40.832,50772,55204
40.84,50776,55213
40.848,50781,55221
40.856,50787,55229
40.864,50793,55239
40.872,50799,55249
40.88,50805,55260
40.888,50810,55273
40.896,50815,55286
40.904,50821,55298
40.912,50826,55311
40.92,50831,55323
40.928,50837,55334
40.936,50842,55345
40.944,50847,55356
40.952,50852,55368
40.96,50856,55381
40.968,50861,55394
40.976,50865,55406
40.984,50870,55418
40.992,50874,55428
41,50878,55436
41.008,50882,55444
41.016,50887,55452
41.024,50891,55461
41.032,50895,55470
41.04,50899,55480
41.048,50903,55490
41.056,50906,55499
41.064,50910,55509
41.072,50914,55518
41.08,50918,55526
41.088,50922,55536
41.096,50926,55545
41.104,50930,55555
41.112,50934,55565
41.12,50938,55576
41.128,50942,55586
41.136,50946,55596
41.144,50951,55607
41.152,50955,55617
41.16,50959,55627
41.168,50964,55637
41.176,50968,55648
41.184,50972,55658
41.192,50977,55668
41.2,50981,55679
41.208,50986,55689
41.216,50991,55700
41.224,50995,55711
41.232,50999,55723
41.24,51004,55734
41.248,51008,55743
41.256,51013,55752
41.264,51018,55760
41.272,51023,55768
41.28,51029,55777
41.288,51033,55788
41.296,51038,55799
41.304,51041,55812
41.312,51045,55825
41.32,51049,55838
41.328,51053,55849
41.336,51056,55855
41.344,51057,55855
41.352,51054,55844
41.36,51045,55819
41.368,51030,55779
41.376,51009,55724
41.384,50981,55654
41.392,50948,55574
41.4,50913,55488
41.408,50876,55402
41.416,50840,55320
41.424,50807,55247
41.432,50779,55185
41.44,50756,55135
41.448,50738,55098
41.456,50724,55071
41.464,50714,55052
41.472,50707,55039
41.48,50703,55030
41.488,50700,55024
41.496,50699,55020
41.504,50698,55018
41.512,50698,55017
41.52,50698,55016
41.528,50697,55015
41.536,50696,55013
41.544,50696,55012
41.552,50696,55012
41.56,50698,55013
41.568,50701,55016
41.576,50706,55021
41.584,50710,55028
41.592,50714,55037
41.6,50717,55048
41.608,50720,55059
41.616,50723,55071
41.624,50727,55082
41.632,50731,55091
41.64,50734,55099
41.648,50737,55103
41.656,50738,55106
41.664,50739,55106
41.672,50738,55104
41.68,50736,55101
41.688,50734,55097
41.696,50732,55092
41.704,50731,55088
41.712,50731,55086
41.72,50732,55085
41.728,50733,55086
41.736,50735,55088
41.744,50736,55093
41.752,50737,55098
41.76,50739,55105
41.768,50741,55114
41.776,50744,55123
41.784,50748,55133
41.792,50752,55144
41.8,50757,55155
41.808,50762,55167
41.816,50767,55179
41.824,50773,55191
41.832,50779,55203
41.84,50785,55216
41.848,50790,55228
41.856,50795,55240
41.864,50798,55252
41.872,50800,55264
41.88,50803,55275
41.888,50806,55287
41.896,50811,55298
41.904,50817,55309
41.912,50824,55319
41.92,50830,55329
41.928,50836,55339
41.936,50841,55348
41.944,50844,55357
41.952,50847,55366
41.96,50851,55374
41.968,50855,55383
41.976,50859,55392
41.984,50864,55400
41.992,50868,55409
42,50870,55417
42.008,50871,55426
42.016,50872,55435
42.024,50872,55444
42.032,50874,55454
42.04,50878,55463
42.048,50884,55473
42.056,50891,55482
42.064,50898,55492
42.072,50905,55502
42.08,50910,55512
42.088,50914,55522
42.096,50917,55532
42.104,50921,55543
42.112,50926,55554
42.12,50931,55564
42.128,50936,55574
42.136,50941,55584
42.144,50946,55595
42.152,50950,55606
42.16,50953,55619
42.168,50955,55633
42.176,50958,55647
42.184,50962,55660
42.192,50966,55671
42.2,50972,55680
42.208,50978,55688
42.216,50984,55696
42.224,50989,55705
42.232,50994,55716
42.24,50999,55727
42.248,51003,55736
42.256,51005,55742
42.264,51005,55740
42.272,51001,55728
42.28,50993,55701
42.288,50978,55661
42.296,50957,55606
42.304,50930,55541
42.312,50900,55468
42.32,50867,55394
42.328,50834,55320
42.336,50802,55252
42.344,50774,55190
42.352,50750,55138
42.36,50731,55096
42.368,50716,55064
42.376,50706,55042
42.384,50700,55029
42.392,50696,55021
42.4,50695,55019
42.408,50695,55019
42.416,50696,55022
42.424,50698,55026
42.432,50700,55030
42.44,50702,55035
42.448,50704,55040
42.456,50706,55045
42.464,50709,55051
42.472,50712,55058
42.48,50716,55067
42.488,50721,55078
42.496,50727,55091
42.504,50733,55106
42.512,50739,55120
42.52,50745,55134
42.528,50750,55146
42.536,50755,55156
42.544,50758,55163
42.552,50760,55167
42.56,50761,55169
42.568,50761,55167
42.576,50759,55164
42.584,50757,55159
42.592,50754,55153
42.6,50752,55147
42.608,50749,55142
42.616,50747,55138
42.624,50746,55135
42.632,50745,55134
42.64,50746,55136
42.648,50747,55140
42.656,50749,55145
42.664,50752,55153
42.672,50756,55162
42.68,50760,55172
42.688,50765,55183
42.696,50770,55194
42.704,50775,55206
42.712,50780,55219
42.72,50786,55232
42.728,50792,55246
42.736,50797,55260
42.744,50803,55273
42.752,50809,55285
42.76,50815,55296
42.768,50821,55306
42.776,50828,55315
42.784,50834,55326
42.792,50839,55339
42.8,50844,55352
42.808,50849,55366
42.816,50853,55380
42.824,50856,55392
42.832,50860,55403
42.84,50865,55413
42.848,50869,55422
42.856,50873,55431
42.864,50877,55441
42.872,50880,55450
42.88,50884,55460
42.888,50888,55469
42.896,50891,55478
42.904,50895,55486
42.912,50899,55493
42.92,50903,55500
42.928,50907,55507
42.936,50911,55515
42.944,50915,55525
42.952,50919,55536
42.96,50923,55547
42.968,50927,55559
42.976,50931,55571
42.984,50935,55581
42.992,50939,55591
43,50944,55601
43.008,50948,55611
43.016,50953,55621
43.024,50957,55632
43.032,50961,55643
43.04,50965,55654
43.048,50970,55664
43.056,50975,55672
43.064,50980,55680
43.072,50986,55688
43.08,50992,55698
43.088,50997,55708
43.096,51001,55720
43.104,51004,55733
43.112,51007,55745
43.12,51010,55757
43.128,51014,55768
43.136,51018,55779
43.144,51023,55789
43.152,51027,55796
43.16,51029,55798
43.168,51028,55791
43.176,51021,55772
43.184,51008,55738
43.192,50987,55687
43.2,50961,55622
43.208,50931,55544
43.216,50898,55459
43.224,50864,55373
43.232,50831,55291
43.24,50799,55217
43.248,50769,55154
43.256,50743,55102
43.264,50720,55060
43.272,50703,55028
43.28,50689,55004
43.288,50680,54987
43.296,50674,54974
43.304,50670,54965
43.312,50668,54959
43.32,50666,54954
43.328,50664,54951
43.336,50662,54947
43.344,50660,54943
43.352,50658,54939
43.36,50658,54935
43.368,50659,54932
43.376,50661,54930
43.384,50663,54930
43.392,50665,54933
43.4,50667,54938
43.408,50668,54945
43.416,50669,54954
43.424,50671,54965
43.432,50674,54976
43.44,50679,54987
43.448,50683,54997
43.456,50688,55005
43.464,50692,55012
43.472,50694,55016
43.48,50695,55017
43.488,50694,55017
43.496,50693,55014
43.504,50691,55011
43.512,50689,55007
43.52,50687,55003
43.528,50685,55000
43.536,50684,54998
43.544,50684,54998
43.552,50685,55000
43.56,50686,55003
43.568,50688,55008
43.576,50691,55014
43.584,50694,55021
43.592,50698,55030
43.6,50702,55039
43.608,50707,55049
43.616,50712,55060
43.624,50717,55072
43.632,50722,55085
43.64,50727,55097
43.648,50732,55110
43.656,50738,55122
43.664,50744,55135
43.672,50750,55147
43.68,50757,55159
43.688,50762,55171
43.696,50768,55182
43.704,50772,55194
43.712,50776,55205
43.72,50780,55216
43.728,50784,55227
43.736,50788,55237
43.744,50793,55248
43.752,50797,55258
43.76,50801,55268
43.768,50806,55277
43.776,50810,55287
43.784,50814,55297
43.792,50819,55306
43.8,50823,55315
43.808,50826,55325
43.816,50828,55334
43.824,50830,55344
43.832,50832,55354
43.84,50834,55363
43.848,50839,55373
43.856,50844,55382
43.864,50850,55392
43.872,50857,55402
43.88,50862,55412
43.888,50867,55422
43.896,50872,55432
43.904,50876,55443
43.912,50880,55454
43.92,50884,55464
43.928,50889,55476
43.936,50894,55487
43.944,50900,55498
43.952,50905,55509
43.96,50909,55520
43.968,50912,55532
43.976,50914,55544
43.984,50917,55555
43.992,50920,55567
44,50925,55579
44.008,50932,55591
44.016,50939,55603
44.024,50946,55614
44.032,50952,55625
44.04,50957,55637
44.048,50962,55649
44.056,50966,55661
44.064,50971,55673
44.072,50976,55683
44.08,50980,55689
44.088,50981,55686
44.096,50977,55672
44.104,50966,55644
44.112,50947,55600
44.12,50920,55541
44.128,50887,55469
44.136,50851,55388
44.144,50815,55303
44.152,50781,55219
44.16,50749,55141
44.168,50721,55073
44.176,50697,55017
44.184,50676,54972
44.192,50659,54938
44.2,50646,54912
44.208,50637,54894
44.216,50631,54881
44.224,50627,54872
44.232,50626,54865
44.24,50624,54861
44.248,50623,54858
44.256,50622,54857
44.264,50619,54856
44.272,50616,54856
44.28,50612,54855
44.288,50610,54854
44.296,50610,54853
44.304,50611,54852
44.312,50614,54852
44.32,50617,54855
44.328,50622,54861
44.336,50626,54870
44.344,50631,54882
44.352,50636,54894
44.36,50641,54906
44.368,50646,54918
44.376,50651,54926
44.384,50655,54933
44.392,50657,54936
44.4,50658,54938
44.408,50658,54939
44.416,50657,54939
44.424,50655,54939
44.432,50653,54938
44.44,50651,54936
44.448,50650,54933
44.456,50649,54930
44.464,50649,54927
44.472,50650,54926
44.48,50651,54928
44.488,50653,54932
44.496,50656,54939
44.504,50659,54947
44.512,50663,54956
44.52,50667,54966
44.528,50672,54977
44.536,50678,54989
44.544,50683,55002
44.552,50689,55015
44.56,50695,55027
44.568,50701,55040
44.576,50707,55053
44.584,50712,55066
44.592,50718,55079
44.6,50723,55092
44.608,50729,55105
44.616,50734,55118
44.624,50739,55130
44.632,50744,55142
44.64,50749,55154
44.648,50754,55165
44.656,50759,55177
44.664,50764,55187
44.672,50768,55198
44.68,50773,55208
44.688,50777,55218
44.696,50782,55228
44.704,50786,55239
44.712,50790,55250
44.72,50794,55262
44.728,50798,55274
44.736,50802,55284
44.744,50806,55293
44.752,50810,55301
44.76,50814,55308
44.768,50818,55316
44.776,50823,55325
44.784,50827,55334
44.792,50832,55345
44.8,50836,55355
44.808,50840,55366
44.816,50845,55376
44.824,50849,55387
44.832,50853,55397
44.84,50857,55408
44.848,50862,55419
44.856,50866,55429
44.864,50871,55439
44.872,50876,55449
44.88,50881,55459
44.888,50886,55469
44.896,50890,55480
44.904,50895,55491
44.912,50899,55503
44.92,50904,55515
44.928,50909,55527
44.936,50913,55538
44.944,50918,55548
44.952,50922,55558
44.96,50926,55568
44.968,50931,55579
44.976,50936,55591
44.984,50941,55603
44.992,50945,55612
45,50947,55616
45.008,50946,55609
45.016,50940,55589
45.024,50929,55554
45.032,50911,55504
45.04,50887,55442
45.048,50857,55371
45.056,50825,55297
45.064,50792,55223
45.072,50759,55153
45.08,50729,55089
45.088,50702,55035
45.096,50681,54990
45.104,50665,54956
45.112,50653,54931
45.12,50645,54916
45.128,50641,54909
45.136,50639,54906
45.144,50638,54906
45.152,50639,54908
45.16,50641,54909
45.168,50643,54911
45.176,50646,54913
45.184,50650,54917
45.192,50653,54924
45.2,50656,54934
45.208,50660,54946
45.216,50664,54960
45.224,50668,54974
45.232,50674,54989
45.24,50680,55003
45.248,50687,55016
45.256,50693,55029
45.264,50699,55040
45.272,50704,55050
45.28,50707,55057
45.288,50708,55061
45.296,50708,55062
45.304,50707,55059
45.312,50705,55053
45.32,50704,55045
45.328,50704,55036
45.336,50703,55029
45.344,50702,55024
45.352,50701,55021
45.36,50698,55021
45.368,50696,55023
45.376,50694,55026
45.384,50694,55031
45.392,50695,55037
45.4,50698,55044
45.408,50702,55053
45.416,50707,55063
45.424,50712,55074
45.432,50717,55085
45.44,50722,55098
45.448,50727,55111
45.456,50732,55124
45.464,50739,55138
45.472,50748,55151
45.48,50757,55165
45.488,50766,55178
45.496,50773,55191
45.504,50779,55204
45.512,50783,55217
45.52,50785,55229
45.528,50788,55242
45.536,50791,55254
45.544,50796,55266
45.552,50801,55277
45.56,50806,55288
45.568,50811,55299
45.576,50815,55310
45.584,50820,55320
45.592,50824,55330
45.6,50828,55340
45.608,50832,55350
45.616,50835,55359
45.624,50838,55368
45.632,50842,55377
45.64,50845,55386
45.648,50849,55395
45.656,50853,55404
45.664,50857,55413
45.672,50862,55423
45.68,50866,55432
45.688,50870,55442
45.696,50875,55451
45.704,50879,55461
45.712,50883,55471
45.72,50887,55482
45.728,50892,55492
45.736,50896,55503
45.744,50901,55513
45.752,50906,55524
45.76,50910,55535
45.768,50914,55545
45.776,50918,55556
45.784,50922,55567
45.792,50926,55578
45.8,50931,55589
45.808,50936,55600
45.816,50941,55610
45.824,50946,55621
45.832,50951,55632
45.84,50956,55644
45.848,50961,55655
45.856,50965,55666
45.864,50969,55673
45.872,50970,55673
45.88,50968,55663
45.888,50960,55639
45.896,50946,55599
45.904,50925,55545
45.912,50897,55478
45.92,50863,55401
45.928,50825,55321
45.936,50786,55240
45.944,50750,55164
45.952,50719,55095
45.96,50693,55035
45.968,50673,54986
45.976,50657,54947
45.984,50645,54918
45.992,50635,54897
46,50628,54882
46.008,50623,54871
46.016,50619,54864
46.024,50617,54859
46.032,50616,54854
46.04,50615,54851
46.048,50614,54847
46.056,50613,54844
46.064,50611,54841
46.072,50609,54839
46.08,50607,54839
46.088,50605,54839
46.096,50605,54842
46.104,50607,54847
46.112,50612,54855
46.12,50617,54864
46.128,50624,54875
46.136,50630,54888
46.144,50636,54900
46.152,50641,54911
46.16,50646,54920
46.168,50649,54927
46.176,50651,54931
46.184,50653,54933
46.192,50653,54932
46.2,50652,54929
46.208,50650,54926
46.216,50646,54922
46.224,50641,54920
46.232,50637,54918
46.24,50634,54916
46.248,50633,54915
46.256,50635,54914
46.264,50638,54915
46.272,50642,54918
46.28,50646,54923
46.288,50650,54930
46.296,50654,54940
46.304,50658,54950
46.312,50662,54961
46.32,50667,54973
46.328,50672,54984
46.336,50678,54996
46.344,50684,55009
46.352,50690,55022
46.36,50696,55036
46.368,50701,55050
46.376,50706,55066
46.384,50711,55081
46.392,50716,55095
46.4,50721,55107
46.408,50727,55117
46.416,50732,55127
46.424,50738,55136
46.432,50743,55145
46.44,50748,55156
46.448,50753,55166
46.456,50757,55177
46.464,50762,55188
46.472,50766,55198
46.48,50770,55208
46.488,50775,55218
46.496,50779,55228
46.504,50784,55238
46.512,50788,55248
46.52,50792,55259
46.528,50796,55271
46.536,50801,55283
46.544,50805,55294
46.552,50809,55305
46.56,50813,55314
46.568,50818,55322
46.576,50822,55331
46.584,50826,55340
46.592,50831,55350
46.6,50836,55360
46.608,50840,55371
46.616,50845,55382
46.624,50849,55393
46.632,50854,55404
46.64,50859,55415
46.648,50863,55426
46.656,50868,55437
46.664,50873,55447
46.672,50877,55457
46.68,50882,55467
46.688,50887,55477
46.696,50892,55488
46.704,50897,55500
46.712,50902,55512
46.72,50906,55525
46.728,50912,55538
46.736,50917,55550
46.744,50921,55558
46.752,50923,55559
46.76,50921,55550
46.768,50913,55528
46.776,50899,55491
46.784,50878,55438
46.792,50851,55371
46.8,50818,55293
46.808,50783,55209
46.816,50747,55124
46.824,50712,55044
46.832,50680,54972
46.84,50652,54911
46.848,50629,54862
46.856,50610,54825
46.864,50596,54798
46.872,50586,54778
46.88,50578,54764
46.888,50573,54754
46.896,50569,54745
46.904,50567,54739
46.912,50565,54733
46.92,50563,54729
46.928,50562,54725
46.936,50560,54722
46.944,50558,54719
46.952,50556,54716
46.96,50555,54712
46.968,50555,54710
46.976,50556,54708
46.984,50560,54709
46.992,50564,54714
47,50569,54723
47.008,50574,54735
47.016,50578,54749
47.024,50582,54763
47.032,50586,54776
47.04,50589,54786
47.048,50592,54794
47.056,50595,54798
47.064,50597,54801
47.072,50597,54802
47.08,50597,54800
47.088,50595,54798
47.096,50593,54794
47.104,50591,54791
47.112,50590,54787
47.12,50590,54784
47.128,50590,54783
47.136,50591,54783
47.144,50593,54786
47.152,50595,54791
47.16,50597,54797
47.168,50600,54806
47.176,50603,54815
47.184,50606,54825
47.192,50611,54836
47.2,50616,54847
47.208,50621,54859
47.216,50627,54872
47.224,50633,54885
47.232,50638,54898
47.24,50643,54912
47.248,50648,54925
47.256,50653,54938
47.264,50660,54949
47.272,50667,54960
47.28,50675,54970
47.288,50683,54981
47.296,50690,54993
47.304,50695,55006
47.312,50699,55020
47.32,50702,55033
47.328,50704,55046
47.336,50707,55057
47.344,50711,55068
47.352,50716,55078
47.36,50721,55089
47.368,50726,55099
47.376,50731,55110
47.384,50735,55120
47.392,50739,55131
47.4,50743,55141
47.408,50747,55152
47.416,50752,55162
47.424,50758,55172
47.432,50765,55183
47.44,50771,55193
47.448,50777,55204
47.456,50781,55215
47.464,50785,55226
47.472,50788,55237
47.48,50791,55249
47.488,50795,55260
47.496,50800,55272
47.504,50805,55284
47.512,50810,55296
47.52,50815,55308
47.528,50820,55319
47.536,50825,55331
47.544,50829,55343
47.552,50834,55356
47.56,50839,55368
47.568,50845,55381
47.576,50852,55393
47.584,50859,55406
47.592,50866,55418
47.6,50872,55430
47.608,50877,55442
47.616,50881,55454
47.624,50885,55466
47.632,50889,55479
47.64,50893,55491
47.648,50898,55500
47.656,50900,55504
47.664,50899,55497
47.672,50892,55477
47.68,50879,55442
47.688,50860,55391
47.696,50833,55325
47.704,50802,55248
47.712,50766,55166
47.72,50728,55082
47.728,50690,55003
47.736,50656,54931
47.744,50626,54870
47.752,50603,54820
47.76,50585,54781
47.768,50573,54752
47.776,50565,54731
47.784,50559,54716
47.792,50554,54706
47.8,50551,54700
47.808,50548,54696
47.816,50547,54693
47.824,50546,54691
47.832,50546,54689
47.84,50547,54687
47.848,50547,54685
47.856,50547,54685
47.864,50546,54685
47.872,50545,54688
47.88,50544,54693
47.888,50544,54701
47.896,50546,54710
47.904,50551,54720
47.912,50558,54731
47.92,50565,54742
47.928,50573,54752
47.936,50579,54761
47.944,50583,54768
47.952,50586,54773
47.96,50586,54775
47.968,50586,54775
47.976,50585,54771
47.984,50583,54766
47.992,50581,54760
48,50580,54754
48.008,50578,54749
48.016,50576,54746
48.024,50573,54746
48.032,50571,54749
48.04,50570,54754
48.048,50570,54759
48.056,50572,54765
48.064,50576,54770
48.072,50582,54775
48.08,50587,54782
48.088,50593,54790
48.096,50598,54800
48.104,50603,54812
48.112,50608,54825
48.12,50613,54838
48.128,50619,54851
48.136,50624,54863
48.144,50630,54875
48.152,50636,54887
48.16,50641,54899
48.168,50647,54913
48.176,50652,54926
48.184,50657,54940
48.192,50662,54952
48.2,50666,54964
48.208,50671,54973
48.216,50675,54982
48.224,50680,54991
48.232,50684,54999
48.24,50689,55009
48.248,50693,55018
48.256,50697,55028
48.264,50701,55038
48.272,50705,55047
48.28,50709,55056
48.288,50713,55065
48.296,50717,55073
48.304,50721,55082
48.312,50725,55092
48.32,50729,55104
48.328,50732,55116
48.336,50735,55129
48.344,50739,55140
48.352,50743,55150
48.36,50748,55159
48.368,50753,55167
48.376,50758,55175
48.384,50763,55183
48.392,50768,55193
48.4,50773,55204
48.408,50777,55214
48.416,50782,55225
48.424,50786,55236
48.432,50791,55247
48.44,50796,55258
48.448,50801,55270
48.456,50806,55281
48.464,50811,55293
48.472,50817,55303
48.48,50821,55313
48.488,50826,55323
48.496,50831,55333
48.504,50835,55344
48.512,50840,55356
48.52,50845,55369
48.528,50849,55381
48.536,50854,55391
48.544,50856,55396
48.552,50856,55391
48.56,50851,55375
48.568,50840,55345
48.576,50823,55300
48.584,50800,55241
48.592,50772,55172
48.6,50740,55096
48.608,50706,55018
48.616,50673,54944
48.624,50643,54877
48.632,50616,54820
48.64,50594,54774
48.648,50577,54738
48.656,50564,54712
48.664,50555,54695
48.672,50550,54684
48.68,50547,54678
48.688,50546,54676
48.696,50546,54676
48.704,50547,54677
48.712,50548,54679
48.72,50549,54682
48.728,50551,54686
48.736,50553,54691
48.744,50555,54697
48.752,50558,54705
48.76,50562,54712
48.768,50566,54721
48.776,50572,54730
48.784,50579,54740
48.792,50586,54752
48.8,50592,54765
48.808,50598,54778
48.816,50602,54790
48.824,50604,54798
48.832,50605,54801
48.84,50605,54801
48.848,50603,54796
48.856,50601,54789
48.864,50598,54781
48.872,50595,54773
48.88,50591,54766
48.888,50588,54760
48.896,50584,54756
48.904,50582,54753
48.912,50582,54752
48.92,50583,54753
48.928,50586,54755
48.936,50591,54759
48.944,50597,54766
48.952,50603,54775
48.96,50607,54786
48.968,50610,54798
48.976,50613,54811
48.984,50616,54825
48.992,50620,54838
49,50625,54850
49.008,50631,54863
49.016,50637,54876
49.024,50643,54888
49.032,50649,54901
49.04,50654,54913
49.048,50659,54925
49.056,50663,54937
49.064,50668,54949
49.072,50674,54960
49.08,50681,54971
49.088,50688,54982
49.096,50696,54992
49.104,50702,55002
49.112,50707,55012
49.12,50709,55022
49.128,50711,55032
49.136,50712,55041
49.144,50714,55051
49.152,50717,55060
49.16,50721,55069
49.168,50726,55078
49.176,50730,55087
49.184,50734,55096
49.192,50737,55105
49.2,50740,55114
49.208,50744,55123
49.216,50749,55132
49.224,50755,55142
49.232,50763,55151
49.24,50770,55161
49.248,50776,55170
49.256,50780,55180
49.264,50782,55190
49.272,50784,55200
49.28,50785,55210
49.288,50788,55221
49.296,50791,55232
49.304,50796,55243
49.312,50801,55254
49.32,50806,55265
49.328,50811,55276
49.336,50816,55286
49.344,50820,55297
49.352,50824,55309
49.36,50829,55320
49.368,50834,55332
49.376,50840,55341
49.384,50844,55347
49.392,50846,55346
49.4,50843,55334
49.408,50835,55309
49.416,50819,55269
49.424,50797,55214
49.432,50769,55148
49.44,50738,55074
49.448,50704,54996
49.456,50670,54921
49.464,50639,54851
49.472,50611,54789
49.48,50587,54738
49.488,50568,54697
49.496,50553,54665
49.504,50542,54641
49.512,50535,54625
49.52,50528,54614
49.528,50523,54607
49.536,50519,54602
49.544,50515,54599
49.552,50513,54597
49.56,50513,54596
49.568,50514,54594
49.576,50516,54593
49.584,50518,54593
49.592,50520,54595
49.6,50522,54598
49.608,50524,54604
49.616,50527,54612
49.624,50531,54622
49.632,50537,54633
49.64,50542,54645
49.648,50548,54657
49.656,50553,54667
49.664,50557,54675
49.672,50560,54680
49.68,50561,54683
49.688,50561,54682
49.696,50560,54678
49.704,50558,54672
49.712,50554,54665
49.72,50551,54657
49.728,50548,54651
49.736,50546,54645
49.744,50544,54641
49.752,50542,54639
49.76,50542,54639
49.768,50543,54640
49.776,50544,54644
49.784,50547,54649
49.792,50550,54656
49.8,50554,54664
49.808,50559,54674
49.816,50562,54685
49.824,50564,54697
49.832,50566,54709
49.84,50569,54722
49.848,50572,54734
49.856,50578,54746
49.864,50585,54757
49.872,50594,54768
49.88,50602,54779
49.888,50609,54790
49.896,50615,54801
49.904,50620,54812
49.912,50624,54823
49.92,50628,54834
49.928,50632,54844
49.936,50637,54854
49.944,50642,54863
49.952,50646,54872
49.96,50651,54881
49.968,50654,54891
49.976,50657,54902
49.984,50659,54913
49.992,50661,54925
50,50664,54935
50.008,50667,54943
50.016,50672,54950
50.024,50677,54956
50.032,50682,54962
50.04,50687,54968
50.048,50690,54976
50.056,50694,54985
50.064,50697,54994
50.072,50701,55004
50.08,50705,55013
50.088,50709,55022
50.096,50713,55030
50.104,50718,55039
50.112,50722,55049
50.12,50727,55060
50.128,50731,55073
50.136,50735,55086
50.144,50740,55100
50.152,50744,55112
50.16,50749,55123
50.168,50754,55132
50.176,50759,55140
50.184,50763,55148
50.192,50768,55157
50.2,50772,55167
50.208,50777,55179
50.216,50782,55191
50.224,50787,55202
50.232,50792,55212
50.24,50794,55216
50.248,50795,55212
50.256,50790,55197
50.264,50780,55168
50.272,50763,55125
50.28,50739,55068
50.288,50710,54998
50.296,50676,54919
50.304,50641,54835
50.312,50605,54753
50.32,50572,54676
50.328,50542,54608
50.336,50516,54550
50.344,50494,54504
50.352,50477,54467
50.36,50463,54438
50.368,50453,54415
50.376,50445,54397
50.384,50438,54381
50.392,50432,54367
50.4,50427,54355
50.408,50422,54343
50.416,50417,54331
50.424,50413,54320
50.432,50408,54309
50.44,50403,54298
50.448,50399,54289
50.456,50395,54281
50.464,50393,54275
50.472,50391,54272
50.48,50391,54273
50.488,50393,54276
50.496,50396,54283
50.504,50400,54292
50.512,50405,54301
50.52,50409,54311
50.528,50414,54320
50.536,50417,54327
50.544,50419,54332
50.552,50420,54334
50.56,50420,54333
50.568,50419,54328
50.576,50417,54320
50.584,50414,54311
50.592,50411,54301
50.6,50408,54294
50.608,50406,54289
50.616,50404,54287
50.624,50403,54288
50.632,50403,54290
50.64,50404,54294
50.648,50406,54299
50.656,50408,54304
50.664,50411,54310
50.672,50414,54318
50.68,50418,54327
50.688,50422,54336
50.696,50427,54347
50.704,50432,54358
50.712,50437,54369
50.72,50442,54380
50.728,50447,54392
50.736,50453,54403
50.744,50458,54415
50.752,50463,54426
50.76,50468,54438
50.768,50473,54449
50.776,50478,54460
50.784,50483,54471
50.792,50488,54482
50.8,50493,54492
50.808,50497,54502
50.816,50501,54512
50.824,50506,54521
50.832,50510,54531
50.84,50514,54541
50.848,50518,54551
50.856,50523,54561
50.864,50527,54569
50.872,50531,54575
50.88,50536,54581
50.888,50541,54587
50.896,50545,54595
50.904,50550,54604
50.912,50554,54616
50.92,50558,54630
50.928,50562,54643
50.936,50565,54656
50.944,50569,54667
50.952,50574,54678
50.96,50579,54688
50.968,50584,54698
50.976,50589,54709
50.984,50594,54720
50.992,50599,54732
51,50603,54744
51.008,50608,54757
51.016,50613,54768
51.024,50620,54779
51.032,50627,54790
51.04,50635,54801
51.048,50643,54813
51.056,50651,54825
51.064,50656,54839
51.072,50660,54853
51.08,50663,54867
51.088,50666,54880
51.096,50669,54893
51.104,50674,54905
51.112,50680,54918
51.12,50686,54930
51.128,50692,54941
51.136,50696,54947
51.144,50696,54944
51.152,50690,54930
51.16,50679,54901
51.168,50662,54857
51.176,50640,54798
51.184,50614,54728
51.192,50584,54651
51.2,50553,54571
51.208,50521,54494
51.216,50489,54423
51.224,50459,54362
51.232,50432,54311
51.24,50410,54270
51.248,50393,54239
51.256,50381,54215
51.264,50373,54197
51.272,50367,54183
51.28,50362,54172
51.288,50358,54163
51.296,50355,54155
51.304,50351,54148
51.312,50348,54140
51.32,50346,54133
51.328,50345,54126
51.336,50345,54119
51.344,50345,54113
51.352,50345,54109
51.36,50344,54108
51.368,50343,54110
51.376,50342,54115
51.384,50343,54123
51.392,50346,54133
51.4,50351,54144
51.408,50356,54155
51.416,50361,54165
51.424,50366,54173
51.432,50369,54178
51.44,50370,54180
51.448,50370,54180
51.456,50369,54177
51.464,50367,54173
51.472,50365,54167
51.48,50363,54162
51.488,50361,54157
51.496,50360,54153
51.504,50360,54151
51.512,50360,54151
51.52,50360,54153
51.528,50362,54156
51.536,50364,54162
51.544,50366,54169
51.552,50370,54177
51.56,50374,54186
51.568,50379,54197
51.576,50384,54208
51.584,50389,54219
51.592,50395,54231
51.6,50401,54244
51.608,50407,54257
51.616,50413,54270
51.624,50418,54283
51.632,50423,54296
51.64,50426,54309
51.648,50430,54323
51.656,50435,54336
51.664,50441,54349
51.672,50448,54362
51.68,50455,54375
51.688,50463,54388
51.696,50470,54400
51.704,50476,54412
51.712,50481,54424
51.72,50486,54436
51.728,50491,54447
